EMG - Pod01,EMG - Pod02,EMG - Pod03,EMG - Pod04,EMG - Pod05,EMG - Pod06,EMG - Pod07,EMG - Pod08,Timestamp
0,0,0,0,0,0,0,0,24/09/2020 15:59:07
47,8,-19,-53,0,21,38,0,24/09/2020 15:59:07
1,-1,-2,-1,1,1,-2,0,24/09/2020 15:59:08
0,2,-3,5,-3,-3,2,0,24/09/2020 15:59:08
0,-5,-2,-1,0,0,3,0,24/09/2020 15:59:08
-1,-6,-12,-6,-3,0,0,0,24/09/2020 15:59:08
2,5,0,-4,-3,-1,-3,0,24/09/2020 15:59:08
0,2,-3,0,1,0,0,0,24/09/2020 15:59:08
0,0,4,-3,0,0,1,0,24/09/2020 15:59:08
-3,0,0,-2,2,-3,-1,0,24/09/2020 15:59:08
-1,-5,-4,1,5,-1,-2,0,24/09/2020 15:59:08
-1,-1,-3,2,2,3,1,0,24/09/2020 15:59:08
-2,-2,-5,-3,1,-4,-7,0,24/09/2020 15:59:08
-1,3,6,3,0,0,-1,0,24/09/2020 15:59:08
0,-3,2,-2,-1,1,-6,0,24/09/2020 15:59:08
-4,-1,-5,-11,-10,-9,0,0,24/09/2020 15:59:08
-1,-1,0,3,-2,2,11,0,24/09/2020 15:59:08
-2,-1,-3,5,1,0,12,0,24/09/2020 15:59:08
1,8,3,2,-3,-5,-4,0,24/09/2020 15:59:08
0,0,0,0,0,0,0,0,24/09/2020 15:59:13
-3,4,11,6,1,-2,-4,0,24/09/2020 15:59:13
2,9,9,4,1,-1,1,0,24/09/2020 15:59:14
-1,1,-2,1,0,-2,-1,0,24/09/2020 15:59:14
-2,1,0,1,1,2,-2,0,24/09/2020 15:59:14
0,0,3,-2,-1,0,-3,0,24/09/2020 15:59:14
-4,-3,-4,0,-2,0,2,0,24/09/2020 15:59:14
0,-2,-3,-2,0,-1,2,0,24/09/2020 15:59:14
-1,2,0,-7,0,-2,-2,0,24/09/2020 15:59:14
1,0,-2,-3,-3,0,-3,0,24/09/2020 15:59:15
-1,-3,-4,-1,0,2,0,0,24/09/2020 15:59:15
-3,0,-2,-1,2,0,-2,0,24/09/2020 15:59:15
1,2,-5,0,4,0,-2,0,24/09/2020 15:59:15
-4,-8,0,4,1,0,0,0,24/09/2020 15:59:15
2,-3,-3,0,-1,1,-1,0,24/09/2020 15:59:15
-2,-6,-3,-3,2,-3,2,0,24/09/2020 15:59:15
0,7,13,3,1,1,1,0,24/09/2020 15:59:15
-1,0,2,-2,-2,-2,-3,0,24/09/2020 15:59:15
0,0,3,5,-1,-2,0,0,24/09/2020 15:59:15
0,3,4,2,0,-3,-2,0,24/09/2020 15:59:15
4,2,-2,-2,-1,2,0,0,24/09/2020 15:59:15
-1,4,9,6,-1,1,1,0,24/09/2020 15:59:15
0,-4,6,-2,2,-1,0,0,24/09/2020 15:59:15
1,-2,-1,1,-1,0,2,0,24/09/2020 15:59:15
1,-3,-7,-5,0,-1,-1,0,24/09/2020 15:59:15
2,-5,-11,-8,-2,1,1,0,24/09/2020 15:59:15
1,5,8,0,-1,2,-1,0,24/09/2020 15:59:15
-1,-6,-16,-7,-2,-3,0,0,24/09/2020 15:59:15
0,3,4,1,-3,1,3,0,24/09/2020 15:59:15
0,-8,-13,-3,-2,1,-2,0,24/09/2020 15:59:15
-1,-3,0,6,-2,0,0,0,24/09/2020 15:59:15
0,-1,2,1,-1,0,1,0,24/09/2020 15:59:15
2,-4,-10,-5,-3,2,3,0,24/09/2020 15:59:15
-2,9,12,10,-1,-1,-1,0,24/09/2020 15:59:15
-1,-7,-2,-1,0,-1,-3,0,24/09/2020 15:59:15
4,2,-4,-2,0,-1,-1,0,24/09/2020 15:59:15
0,-3,0,-4,1,-1,1,0,24/09/2020 15:59:16
2,-3,-5,-5,2,-2,0,0,24/09/2020 15:59:16
-1,-1,-1,2,1,-1,0,0,24/09/2020 15:59:16
0,2,-1,-3,2,-1,-1,0,24/09/2020 15:59:16
-2,-4,-13,-6,-4,-3,2,0,24/09/2020 15:59:16
0,3,2,-1,-2,-1,2,0,24/09/2020 15:59:16
1,-2,2,0,0,1,2,0,24/09/2020 15:59:16
0,0,6,0,3,0,-1,0,24/09/2020 15:59:16
2,-2,-14,-2,0,-1,3,0,24/09/2020 15:59:16
0,-6,4,-6,-1,0,-1,0,24/09/2020 15:59:16
0,1,14,-5,-2,-3,-1,0,24/09/2020 15:59:16
-1,-2,-8,0,0,-1,0,0,24/09/2020 15:59:16
1,-5,-5,-2,-1,0,-2,0,24/09/2020 15:59:16
-2,2,8,-9,-2,1,-1,0,24/09/2020 15:59:16
-3,6,20,6,3,0,-4,0,24/09/2020 15:59:16
1,-1,-8,3,2,2,1,0,24/09/2020 15:59:17
-1,0,1,3,0,-3,-1,0,24/09/2020 15:59:17
-1,-6,0,-2,-3,-2,1,0,24/09/2020 15:59:17
1,10,6,1,-1,0,1,0,24/09/2020 15:59:17
1,3,1,-2,0,-2,-1,0,24/09/2020 15:59:17
2,-7,-26,-8,0,0,3,0,24/09/2020 15:59:17
4,4,5,-3,4,-1,-4,0,24/09/2020 15:59:17
-1,5,5,2,-3,0,-2,0,24/09/2020 15:59:17
0,-8,-9,-3,3,2,2,0,24/09/2020 15:59:17
3,3,14,2,-1,1,-1,0,24/09/2020 15:59:17
-4,-3,-5,-10,-4,-3,-6,0,24/09/2020 15:59:17
1,-3,-5,-8,-2,0,-1,0,24/09/2020 15:59:17
-4,-6,-5,7,-2,0,-2,0,24/09/2020 15:59:17
2,-1,0,-3,1,2,1,0,24/09/2020 15:59:17
2,1,6,10,-2,-4,1,0,24/09/2020 15:59:17
2,-10,-26,-19,-2,1,2,0,24/09/2020 15:59:17
6,7,20,19,1,-6,2,0,24/09/2020 15:59:17
4,1,1,-2,1,19,5,0,24/09/2020 15:59:17
-2,-3,-9,-4,1,-3,0,0,24/09/2020 15:59:18
5,3,4,35,1,0,5,0,24/09/2020 15:59:18
-4,-3,1,3,4,-3,-2,0,24/09/2020 15:59:18
-5,-3,12,-11,-3,0,-5,0,24/09/2020 15:59:18
-2,-4,-5,-14,10,-3,-2,0,24/09/2020 15:59:18
2,3,-6,-6,-1,-1,-1,0,24/09/2020 15:59:18
3,2,2,0,-8,-1,1,0,24/09/2020 15:59:18
3,-3,-7,-4,-3,1,2,0,24/09/2020 15:59:18
-1,-1,-3,-12,-5,-1,8,0,24/09/2020 15:59:18
-2,-3,-7,0,2,-2,-1,0,24/09/2020 15:59:18
-3,-7,-5,-5,-2,-2,-1,0,24/09/2020 15:59:19
1,-3,2,1,-1,-1,2,0,24/09/2020 15:59:19
-6,-8,-5,-5,-3,-8,-2,0,24/09/2020 15:59:19
-3,0,4,11,-5,-4,0,0,24/09/2020 15:59:19
-3,-2,-5,-1,1,-2,-1,0,24/09/2020 15:59:19
0,5,0,-7,-2,-1,2,0,24/09/2020 15:59:19
0,-3,-3,-6,1,-3,1,0,24/09/2020 15:59:19
-3,-3,-4,-3,0,-1,-2,0,24/09/2020 15:59:19
-4,3,-1,-30,-2,0,-3,0,24/09/2020 15:59:19
-1,0,1,1,0,0,-2,0,24/09/2020 15:59:19
2,-1,5,4,0,-3,0,0,24/09/2020 15:59:19
2,-7,-4,0,-4,-2,0,0,24/09/2020 15:59:19
-2,2,6,3,0,-2,-3,0,24/09/2020 15:59:19
-5,-6,-2,3,-1,-2,-1,0,24/09/2020 15:59:19
3,1,-1,3,1,0,2,0,24/09/2020 15:59:19
-2,0,10,9,0,0,-2,0,24/09/2020 15:59:19
-3,-1,-2,-5,-3,1,-3,0,24/09/2020 15:59:19
0,0,-6,8,1,2,-1,0,24/09/2020 15:59:20
0,-12,2,-5,-3,3,3,0,24/09/2020 15:59:20
1,1,3,-1,5,-2,-1,0,24/09/2020 15:59:20
-1,-8,-10,-26,-4,-3,-1,0,24/09/2020 15:59:20
4,-3,-5,-6,-2,-1,-2,0,24/09/2020 15:59:20
-3,-6,9,3,1,-2,-1,0,24/09/2020 15:59:20
3,18,11,-1,1,-4,-5,0,24/09/2020 15:59:20
-3,6,1,-6,0,-3,0,0,24/09/2020 15:59:20
-1,-7,-2,-6,-2,-2,-1,0,24/09/2020 15:59:20
-3,-3,-6,-4,1,-1,-3,0,24/09/2020 15:59:20
-1,-9,-7,-3,-3,-2,-2,0,24/09/2020 15:59:20
-3,-2,3,6,1,3,-2,0,24/09/2020 15:59:20
-2,-4,-3,4,1,-1,0,0,24/09/2020 15:59:20
3,0,5,-3,1,2,2,0,24/09/2020 15:59:20
0,0,-11,-1,-1,1,1,0,24/09/2020 15:59:20
-2,3,-9,2,-2,0,-1,0,24/09/2020 15:59:20
-1,5,15,-5,-1,-2,-2,0,24/09/2020 15:59:20
-4,-3,-8,-10,-1,-4,-2,0,24/09/2020 15:59:20
1,-6,-51,-9,-1,0,4,0,24/09/2020 15:59:21
-29,-19,27,-24,6,-1,0,0,24/09/2020 15:59:21
-7,4,5,20,22,2,-3,0,24/09/2020 15:59:21
1,-12,9,13,-12,1,8,0,24/09/2020 15:59:21
-18,-46,3,-45,-32,9,-6,0,24/09/2020 15:59:21
-6,-24,4,5,-28,-12,26,0,24/09/2020 15:59:21
4,5,-7,-23,-23,-10,-10,0,24/09/2020 15:59:21
5,-15,-1,2,-23,5,25,0,24/09/2020 15:59:21
-5,-22,3,-9,-8,-5,11,0,24/09/2020 15:59:21
-3,17,5,-24,4,14,20,0,24/09/2020 15:59:21
-7,-34,-18,-20,11,5,-9,0,24/09/2020 15:59:21
-1,15,-5,9,24,-12,-1,0,24/09/2020 15:59:21
8,1,1,-13,13,-8,-24,0,24/09/2020 15:59:21
9,72,1,-7,3,16,28,0,24/09/2020 15:59:21
5,-17,-22,10,11,0,-11,0,24/09/2020 15:59:22
-4,-26,-1,2,8,1,12,0,24/09/2020 15:59:22
5,23,1,-7,-5,8,14,0,24/09/2020 15:59:22
-3,7,1,32,6,1,1,0,24/09/2020 15:59:22
-6,-7,-2,-26,-13,13,5,0,24/09/2020 15:59:22
8,15,-7,-14,-18,-11,7,0,24/09/2020 15:59:22
-5,-50,-19,-9,-58,7,9,0,24/09/2020 15:59:22
1,-12,0,-7,27,-4,-6,0,24/09/2020 15:59:22
-12,-4,3,-14,-1,-2,7,0,24/09/2020 15:59:22
91,-7,-21,127,-29,-5,68,0,24/09/2020 15:59:22
-61,-6,120,-108,62,-53,-20,0,24/09/2020 15:59:22
19,10,-16,25,13,90,22,0,24/09/2020 15:59:22
-3,3,3,-29,2,-46,11,0,24/09/2020 15:59:22
-4,-7,-12,-10,-3,-8,2,0,24/09/2020 15:59:22
1,-1,-6,-3,-10,3,10,0,24/09/2020 15:59:22
-3,8,22,5,16,-4,-9,0,24/09/2020 15:59:22
-3,3,30,4,-18,-7,-2,0,24/09/2020 15:59:22
3,-2,-13,-1,5,-3,1,0,24/09/2020 15:59:22
-4,11,44,20,5,1,-2,0,24/09/2020 15:59:22
-4,-11,-20,-7,0,-2,-1,0,24/09/2020 15:59:22
-3,-3,-35,7,4,-1,-1,0,24/09/2020 15:59:22
3,-2,-21,-4,1,3,6,0,24/09/2020 15:59:23
-9,-7,5,-2,-2,-2,0,0,24/09/2020 15:59:23
0,-10,-6,-5,2,2,3,0,24/09/2020 15:59:23
8,11,1,3,1,-1,1,0,24/09/2020 15:59:23
-1,-14,-4,-9,3,-20,-29,0,24/09/2020 15:59:23
11,-4,8,21,16,14,27,0,24/09/2020 15:59:23
13,12,14,-12,-34,-6,1,0,24/09/2020 15:59:23
0,-6,-17,-14,-24,1,-1,0,24/09/2020 15:59:23
-16,-16,-1,39,109,32,11,0,24/09/2020 15:59:23
-2,5,10,16,-56,28,9,0,24/09/2020 15:59:23
-7,0,-3,13,20,-4,-1,0,24/09/2020 15:59:23
-13,-17,-1,-5,-22,-8,10,0,24/09/2020 15:59:23
-6,-9,-11,-17,-1,-3,-3,0,24/09/2020 15:59:23
1,6,-13,-27,-6,-2,-4,0,24/09/2020 15:59:24
1,0,-29,-4,-2,1,2,0,24/09/2020 15:59:24
-2,-4,-10,7,4,6,2,0,24/09/2020 15:59:24
-4,3,18,-17,-2,3,-1,0,24/09/2020 15:59:24
3,-2,-6,1,-3,6,4,0,24/09/2020 15:59:24
-2,-8,27,-55,1,-1,3,0,24/09/2020 15:59:24
-3,-3,-2,89,0,1,2,0,24/09/2020 15:59:24
2,-9,-8,-6,2,-1,-1,0,24/09/2020 15:59:24
-5,3,24,57,10,0,-4,0,24/09/2020 15:59:24
-12,-5,-8,13,-6,-2,4,0,24/09/2020 15:59:24
-3,-14,-15,0,-4,-3,-4,0,24/09/2020 15:59:24
-9,-4,2,-5,-5,-3,-6,0,24/09/2020 15:59:24
-11,-6,-6,10,-3,2,-9,0,24/09/2020 15:59:24
2,8,21,12,4,2,1,0,24/09/2020 15:59:24
-12,-5,7,7,-3,-2,-6,0,24/09/2020 15:59:24
-5,-11,-10,4,1,-3,-4,0,24/09/2020 15:59:24
-4,-9,5,12,0,-2,4,0,24/09/2020 15:59:24
-4,0,1,9,0,-4,-3,0,24/09/2020 15:59:24
-15,-4,-6,1,-1,-2,-6,0,24/09/2020 15:59:24
-3,-2,5,2,-6,-2,-5,0,24/09/2020 15:59:25
-5,3,10,0,3,0,-6,0,24/09/2020 15:59:25
1,-8,-19,3,-12,-4,1,0,24/09/2020 15:59:25
-1,-3,-5,11,-1,0,1,0,24/09/2020 15:59:25
2,-1,-5,-3,-4,-4,5,0,24/09/2020 15:59:25
3,18,-5,-46,4,7,-2,0,24/09/2020 15:59:25
-2,0,-10,22,0,0,-6,0,24/09/2020 15:59:25
3,5,-5,-3,0,2,-1,0,24/09/2020 15:59:25
-9,-5,-31,-26,-5,-3,-2,0,24/09/2020 15:59:25
4,8,19,20,-1,7,4,0,24/09/2020 15:59:25
8,4,1,15,3,0,2,0,24/09/2020 15:59:25
2,2,-13,8,1,2,4,0,24/09/2020 15:59:25
1,-8,-5,1,-1,2,-1,0,24/09/2020 15:59:25
-3,6,3,-14,-3,0,-2,0,24/09/2020 15:59:25
4,0,-15,2,-3,-1,4,0,24/09/2020 15:59:25
3,5,3,17,-3,0,2,0,24/09/2020 15:59:25
2,1,8,-4,7,-1,0,0,24/09/2020 15:59:25
1,-2,-12,-1,-4,-2,-1,0,24/09/2020 15:59:25
4,4,-2,7,2,3,10,0,24/09/2020 15:59:25
15,-3,-20,-48,-21,-5,11,0,24/09/2020 15:59:26
-5,-5,-23,-65,-3,-2,-6,0,24/09/2020 15:59:26
10,1,-22,-74,-4,2,-14,0,24/09/2020 15:59:26
1,5,15,-11,-14,-3,0,0,24/09/2020 15:59:26
2,-3,-10,-10,0,0,-3,0,24/09/2020 15:59:26
1,5,10,-4,-4,0,-2,0,24/09/2020 15:59:26
-2,-2,3,-1,1,-1,1,0,24/09/2020 15:59:26
0,-1,1,9,-4,-7,-4,0,24/09/2020 15:59:26
-1,-6,-7,0,4,-2,0,0,24/09/2020 15:59:26
1,5,8,2,-7,-4,3,0,24/09/2020 15:59:26
0,0,0,-2,-1,-1,-4,0,24/09/2020 15:59:26
-1,-1,-7,-6,-6,8,2,0,24/09/2020 15:59:26
-10,-3,-11,-7,-4,-7,-13,0,24/09/2020 15:59:26
1,-2,2,1,1,3,3,0,24/09/2020 15:59:27
-3,-4,4,0,-3,-1,-8,0,24/09/2020 15:59:27
-5,-2,1,-1,-2,0,13,0,24/09/2020 15:59:27
-10,-8,-8,-6,6,-1,5,0,24/09/2020 15:59:27
3,3,-2,4,-1,-6,-2,0,24/09/2020 15:59:27
2,-3,0,3,2,-1,-3,0,24/09/2020 15:59:27
-1,-1,0,11,-2,-4,-10,0,24/09/2020 15:59:27
-9,-2,-3,-1,1,-2,-2,0,24/09/2020 15:59:27
-7,-1,4,2,-1,-2,-2,0,24/09/2020 15:59:27
-2,-1,0,0,-1,0,-5,0,24/09/2020 15:59:27
4,-7,-5,-7,-1,1,-4,0,24/09/2020 15:59:27
-2,-5,0,-3,-2,-2,-2,0,24/09/2020 15:59:27
0,-1,-1,2,3,-1,-3,0,24/09/2020 15:59:27
-1,0,-1,0,-3,-1,-2,0,24/09/2020 15:59:27
6,2,-3,0,-1,2,5,0,24/09/2020 15:59:27
10,3,-6,-1,0,-4,1,0,24/09/2020 15:59:27
8,3,-9,-5,0,-1,5,0,24/09/2020 15:59:27
14,6,-5,-6,-6,2,7,0,24/09/2020 15:59:27
-13,-2,4,6,-4,-4,-9,0,24/09/2020 15:59:27
5,4,4,7,0,0,1,0,24/09/2020 15:59:27
6,3,-4,0,-3,-1,0,0,24/09/2020 15:59:28
-1,0,3,4,1,0,1,0,24/09/2020 15:59:28
0,-3,-4,16,-6,0,2,0,24/09/2020 15:59:28
2,3,2,10,0,-1,4,0,24/09/2020 15:59:28
0,-5,-1,-4,0,1,1,0,24/09/2020 15:59:28
7,8,7,3,4,6,7,0,24/09/2020 15:59:28
81,18,-60,-75,2,11,44,0,24/09/2020 15:59:28
75,12,-76,-61,14,12,58,0,24/09/2020 15:59:28
2,-3,-5,-1,-1,1,-1,0,24/09/2020 15:59:28
-4,-3,-1,2,5,-2,3,0,24/09/2020 15:59:28
-7,-5,-6,-5,-2,-3,-4,0,24/09/2020 15:59:28
2,-9,-2,-1,1,-1,-4,0,24/09/2020 15:59:28
0,0,-1,0,1,-2,2,0,24/09/2020 15:59:28
1,-1,-1,0,-2,-2,0,0,24/09/2020 15:59:29
-4,2,-3,1,0,0,-3,0,24/09/2020 15:59:29
-5,0,0,-1,1,-2,-3,0,24/09/2020 15:59:29
-4,-1,-2,-2,-2,2,-4,0,24/09/2020 15:59:29
2,-7,0,-8,-1,-1,4,0,24/09/2020 15:59:29
-8,8,22,5,-5,-3,-6,0,24/09/2020 15:59:29
6,-6,-17,4,3,0,2,0,24/09/2020 15:59:29
5,-11,-15,-7,0,2,3,0,24/09/2020 15:59:29
-4,-4,0,21,-3,-3,1,0,24/09/2020 15:59:29
-3,-1,-7,76,-4,-7,1,0,24/09/2020 15:59:29
-4,-2,79,28,-2,-1,-7,0,24/09/2020 15:59:29
1,7,-43,-24,-6,-3,-1,0,24/09/2020 15:59:29
22,-6,-28,-1,-3,-4,2,0,24/09/2020 15:59:29
8,0,-5,-16,-2,2,3,0,24/09/2020 15:59:29
0,1,8,-19,-4,-2,1,0,24/09/2020 15:59:29
7,-3,-13,-13,1,0,2,0,24/09/2020 15:59:29
3,1,-6,-7,2,0,3,0,24/09/2020 15:59:29
-1,-5,-4,12,-2,-1,-9,0,24/09/2020 15:59:29
-5,1,-7,-7,0,0,-1,0,24/09/2020 15:59:30
2,-2,-17,-9,1,-2,3,0,24/09/2020 15:59:30
3,0,-8,-1,0,3,-12,0,24/09/2020 15:59:30
-3,-3,-8,4,2,6,-1,0,24/09/2020 15:59:30
7,14,37,19,-5,15,15,0,24/09/2020 15:59:30
0,-8,-21,-20,0,-4,-1,0,24/09/2020 15:59:30
-2,2,6,22,4,-1,1,0,24/09/2020 15:59:30
0,-8,-2,-19,-2,1,4,0,24/09/2020 15:59:30
-3,6,15,2,0,1,0,0,24/09/2020 15:59:30
0,-4,8,-11,-6,-2,2,0,24/09/2020 15:59:30
1,-8,15,-15,-1,2,-1,0,24/09/2020 15:59:30
3,0,-12,2,-4,0,-3,0,24/09/2020 15:59:30
8,9,1,3,4,6,6,0,24/09/2020 15:59:30
8,-2,-12,2,4,3,0,0,24/09/2020 15:59:30
-2,-12,-16,7,-2,-3,-1,0,24/09/2020 15:59:30
0,-2,9,-3,0,-1,-1,0,24/09/2020 15:59:30
1,-3,-15,2,-4,-4,11,0,24/09/2020 15:59:30
7,3,-7,-3,17,10,6,0,24/09/2020 15:59:30
14,9,-5,-12,16,4,5,0,24/09/2020 15:59:31
0,20,-35,-26,-35,5,-33,0,24/09/2020 15:59:31
21,70,10,0,33,12,-1,0,24/09/2020 15:59:31
-4,-4,8,0,80,-20,-13,0,24/09/2020 15:59:31
-4,-78,21,-9,-13,-95,16,0,24/09/2020 15:59:31
-5,-19,-1,2,32,-99,-13,0,24/09/2020 15:59:31
-5,-82,2,4,-4,-63,36,0,24/09/2020 15:59:31
-10,-11,0,1,4,40,30,0,24/09/2020 15:59:31
6,2,-10,-1,-28,-17,-10,0,24/09/2020 15:59:31
-7,10,7,6,9,17,17,0,24/09/2020 15:59:31
9,-26,-30,-2,-31,-12,-1,0,24/09/2020 15:59:31
-31,-59,23,-15,31,-20,-20,0,24/09/2020 15:59:31
27,74,-5,9,28,21,15,0,24/09/2020 15:59:32
-11,51,12,-2,17,2,-1,0,24/09/2020 15:59:32
4,32,17,1,6,15,22,0,24/09/2020 15:59:32
6,34,-2,6,2,4,-11,0,24/09/2020 15:59:32
-54,-75,44,-8,62,-2,15,0,24/09/2020 15:59:32
-5,0,-13,-8,23,10,9,0,24/09/2020 15:59:32
-9,-3,16,-13,1,6,14,0,24/09/2020 15:59:32
-26,13,20,7,32,-12,-41,0,24/09/2020 15:59:32
-7,-30,-9,12,-26,-3,26,0,24/09/2020 15:59:32
-7,-22,3,-42,-7,-9,-14,0,24/09/2020 15:59:32
-11,-18,-2,-11,-2,-1,-2,0,24/09/2020 15:59:32
-3,19,1,1,-23,6,-17,0,24/09/2020 15:59:32
-9,-10,-5,41,40,-2,40,0,24/09/2020 15:59:32
3,-12,7,2,-12,33,10,0,24/09/2020 15:59:32
5,-7,-4,5,-13,-11,-12,0,24/09/2020 15:59:32
-8,-10,-1,-3,-13,-9,-2,0,24/09/2020 15:59:32
-1,1,12,-8,21,-17,-1,0,24/09/2020 15:59:32
-3,-17,-1,5,-46,-2,13,0,24/09/2020 15:59:32
-13,-38,-4,-15,12,44,27,0,24/09/2020 15:59:32
0,-4,-2,4,-2,-14,-7,0,24/09/2020 15:59:33
-8,-9,5,11,-4,1,7,0,24/09/2020 15:59:33
-5,-5,20,13,2,6,6,0,24/09/2020 15:59:33
-3,-3,5,-4,-4,-7,-10,0,24/09/2020 15:59:33
-8,-11,5,-3,-13,-4,-3,0,24/09/2020 15:59:33
0,1,1,-2,-15,-10,-2,0,24/09/2020 15:59:33
-4,3,20,3,-4,-3,-1,0,24/09/2020 15:59:33
5,3,14,6,-5,-2,1,0,24/09/2020 15:59:33
-2,-4,0,2,-1,-1,1,0,24/09/2020 15:59:33
-1,1,0,-6,0,0,-4,0,24/09/2020 15:59:33
2,2,4,1,-2,-2,2,0,24/09/2020 15:59:33
-1,-1,-3,-6,2,2,-3,0,24/09/2020 15:59:33
-1,1,-4,-5,-3,-2,0,0,24/09/2020 15:59:34
-3,-2,5,1,-1,1,0,0,24/09/2020 15:59:34
-3,2,1,-2,0,-2,-4,0,24/09/2020 15:59:34
-6,-4,-5,4,1,0,2,0,24/09/2020 15:59:34
-3,-1,8,-2,0,1,-6,0,24/09/2020 15:59:34
-1,-1,-4,-1,1,-1,-1,0,24/09/2020 15:59:34
0,-3,-7,-3,-2,0,2,0,24/09/2020 15:59:34
-1,0,0,-5,-1,1,-2,0,24/09/2020 15:59:34
-5,1,-2,1,-3,-3,2,0,24/09/2020 15:59:34
0,1,0,1,-1,-1,1,0,24/09/2020 15:59:34
17,0,6,-1,-1,-2,-5,0,24/09/2020 15:59:34
-20,-6,-22,-8,0,-2,-3,0,24/09/2020 15:59:34
-8,-10,-22,-7,-1,-2,5,0,24/09/2020 15:59:34
3,6,10,1,-1,2,-12,0,24/09/2020 15:59:34
16,-3,-28,-9,2,2,0,0,24/09/2020 15:59:34
-26,-9,-20,-1,-3,-2,-8,0,24/09/2020 15:59:34
-11,-4,23,-2,-1,-1,1,0,24/09/2020 15:59:34
7,3,4,6,-1,-1,4,0,24/09/2020 15:59:34
-7,7,17,15,-1,2,10,0,24/09/2020 15:59:34
13,2,7,-9,0,2,12,0,24/09/2020 15:59:35
8,23,55,1,1,-1,-2,0,24/09/2020 15:59:35
-1,1,-7,5,-6,-4,-11,0,24/09/2020 15:59:35
17,6,-2,-11,-2,-1,6,0,24/09/2020 15:59:35
6,10,61,6,0,3,7,0,24/09/2020 15:59:35
-5,-22,-14,-21,3,1,-2,0,24/09/2020 15:59:35
4,8,14,-10,-1,-2,0,0,24/09/2020 15:59:35
-2,-2,-13,-5,-1,-2,7,0,24/09/2020 15:59:35
-2,0,-9,2,-2,-2,-16,0,24/09/2020 15:59:35
4,-5,-20,-2,2,1,0,0,24/09/2020 15:59:35
3,2,2,-85,1,0,3,0,24/09/2020 15:59:35
-1,-2,11,-20,-2,1,1,0,24/09/2020 15:59:35
5,-6,5,24,1,0,-3,0,24/09/2020 15:59:35
-4,-8,-2,-4,-2,-1,2,0,24/09/2020 15:59:35
4,-2,1,-6,3,-2,0,0,24/09/2020 15:59:35
-5,0,22,-2,1,1,-7,0,24/09/2020 15:59:36
-5,-7,-10,-1,-3,-2,-2,0,24/09/2020 15:59:36
-2,0,-4,-9,0,0,0,0,24/09/2020 15:59:36
-3,8,-18,-7,0,0,-3,0,24/09/2020 15:59:36
-3,5,32,10,-2,-2,5,0,24/09/2020 15:59:36
-5,-10,-9,3,-4,-2,-6,0,24/09/2020 15:59:36
5,3,-2,7,-2,-6,-9,0,24/09/2020 15:59:36
0,2,-5,-8,2,-2,-2,0,24/09/2020 15:59:36
-4,0,7,-10,0,-1,6,0,24/09/2020 15:59:36
-5,-5,-14,1,0,-2,-2,0,24/09/2020 15:59:36
-2,-15,-40,6,-2,-2,-8,0,24/09/2020 15:59:36
-1,-7,-13,12,-14,4,-33,0,24/09/2020 15:59:36
-1,-11,-19,8,-1,2,2,0,24/09/2020 15:59:36
4,10,-5,19,3,3,5,0,24/09/2020 15:59:36
-4,-6,-1,0,1,-3,-4,0,24/09/2020 15:59:37
-7,-16,-22,25,-2,-3,-1,0,24/09/2020 15:59:37
-2,-7,-9,-1,-4,-3,-2,0,24/09/2020 15:59:37
17,14,37,48,1,-1,-1,0,24/09/2020 15:59:37
-20,-6,25,-1,6,0,-4,0,24/09/2020 15:59:37
6,-6,-16,-22,-1,-2,0,0,24/09/2020 15:59:37
-6,-10,-2,-4,-5,-1,7,0,24/09/2020 15:59:37
-4,4,28,16,1,4,-3,0,24/09/2020 15:59:37
-5,-3,14,7,-4,-2,4,0,24/09/2020 15:59:37
4,8,9,4,0,0,-6,0,24/09/2020 15:59:37
-3,-9,-13,3,-3,-4,-1,0,24/09/2020 15:59:37
10,4,-11,-11,0,-4,-12,0,24/09/2020 15:59:37
-21,-6,-5,-15,3,1,15,0,24/09/2020 15:59:37
-3,3,-9,-1,7,-1,11,0,24/09/2020 15:59:37
6,7,-17,-8,-4,7,2,0,24/09/2020 15:59:37
-3,-6,3,5,3,-1,-7,0,24/09/2020 15:59:37
-4,-20,-14,1,-14,-6,7,0,24/09/2020 15:59:37
-3,0,-8,-3,-2,2,11,0,24/09/2020 15:59:37
-4,-3,-6,-5,1,1,-3,0,24/09/2020 15:59:38
-1,6,8,4,7,0,8,0,24/09/2020 15:59:38
-6,-4,-17,-8,0,2,-3,0,24/09/2020 15:59:38
0,-5,-4,7,-8,-2,-2,0,24/09/2020 15:59:38
-1,-11,-41,3,-5,-6,-5,0,24/09/2020 15:59:38
-1,-6,8,-1,6,-1,-13,0,24/09/2020 15:59:38
-2,-4,6,-1,3,-2,5,0,24/09/2020 15:59:38
0,13,4,3,-1,-1,-5,0,24/09/2020 15:59:38
-8,-9,-24,-3,-5,-1,-3,0,24/09/2020 15:59:38
-8,-4,-13,-13,0,-2,3,0,24/09/2020 15:59:38
3,11,-7,0,-3,1,-2,0,24/09/2020 15:59:38
-4,6,13,3,-3,2,7,0,24/09/2020 15:59:39
6,-6,-15,0,-5,-2,-7,0,24/09/2020 15:59:39
1,12,22,0,1,-2,-5,0,24/09/2020 15:59:39
23,-5,-17,-1,-7,0,-11,0,24/09/2020 15:59:39
-5,4,-17,-12,-2,-3,-6,0,24/09/2020 15:59:39
5,6,-1,-1,3,2,3,0,24/09/2020 15:59:39
9,11,19,-10,9,2,-8,0,24/09/2020 15:59:39
10,3,8,-3,9,0,10,0,24/09/2020 15:59:39
-7,-20,-10,11,-5,-2,-3,0,24/09/2020 15:59:39
-3,0,10,1,10,0,2,0,24/09/2020 15:59:39
3,4,-1,-8,4,0,1,0,24/09/2020 15:59:39
1,6,-8,2,5,-3,2,0,24/09/2020 15:59:39
11,4,28,14,-5,0,-2,0,24/09/2020 15:59:39
4,4,-12,-4,6,0,1,0,24/09/2020 15:59:39
-2,2,29,9,2,1,8,0,24/09/2020 15:59:39
0,3,3,-5,-2,1,14,0,24/09/2020 15:59:39
0,-3,-26,-6,-8,-1,-7,0,24/09/2020 15:59:39
0,5,7,-6,-1,-3,4,0,24/09/2020 15:59:39
-3,2,20,-2,-3,-2,-1,0,24/09/2020 15:59:40
1,-3,-8,5,0,-1,-4,0,24/09/2020 15:59:40
5,4,-4,0,-2,-1,-3,0,24/09/2020 15:59:40
4,-1,9,7,-3,-1,-3,0,24/09/2020 15:59:40
-5,-7,12,9,0,-2,3,0,24/09/2020 15:59:40
11,14,0,-4,2,5,11,0,24/09/2020 15:59:40
-2,-2,0,-3,-3,1,-7,0,24/09/2020 15:59:40
3,7,7,-1,-4,-2,-8,0,24/09/2020 15:59:40
2,-2,-7,8,0,3,5,0,24/09/2020 15:59:40
-3,-1,7,8,-1,-3,3,0,24/09/2020 15:59:40
-3,-12,2,1,-2,0,0,0,24/09/2020 15:59:40
-5,-5,-16,-10,0,-2,1,0,24/09/2020 15:59:40
4,4,-15,-4,2,0,-7,0,24/09/2020 15:59:40
9,12,21,-7,5,3,-10,0,24/09/2020 15:59:41
2,7,-11,5,0,0,-3,0,24/09/2020 15:59:41
-2,-2,-6,-4,-2,-3,6,0,24/09/2020 15:59:41
-4,-22,-12,-2,-4,0,2,0,24/09/2020 15:59:41
0,-1,19,6,1,-1,-8,0,24/09/2020 15:59:41
-2,7,5,-1,-3,-1,-4,0,24/09/2020 15:59:41
4,-3,-6,-3,0,-1,1,0,24/09/2020 15:59:41
-3,2,2,3,2,-1,5,0,24/09/2020 15:59:41
-2,0,7,11,-2,-2,-4,0,24/09/2020 15:59:41
0,-9,-12,-4,-3,0,9,0,24/09/2020 15:59:41
-2,3,-16,-1,0,2,14,0,24/09/2020 15:59:41
-8,-2,20,14,-3,-3,12,0,24/09/2020 15:59:41
7,-7,-9,-3,1,1,4,0,24/09/2020 15:59:41
1,-3,-8,-7,-6,-2,-1,0,24/09/2020 15:59:41
6,6,30,-11,-4,-1,-13,0,24/09/2020 15:59:41
-2,10,2,-4,2,-1,-7,0,24/09/2020 15:59:42
7,8,-16,-31,-1,-1,0,0,24/09/2020 15:59:42
7,13,8,0,9,2,-10,0,24/09/2020 15:59:42
-10,-6,12,9,-2,-4,-2,0,24/09/2020 15:59:42
-3,-6,-21,9,7,1,0,0,24/09/2020 15:59:42
-1,-12,-16,-1,-1,0,7,0,24/09/2020 15:59:42
13,0,-27,-8,2,-1,-12,0,24/09/2020 15:59:42
1,10,29,16,1,4,-3,0,24/09/2020 15:59:42
-2,-5,-3,-3,1,1,3,0,24/09/2020 15:59:42
1,0,-9,-9,0,-2,-14,0,24/09/2020 15:59:42
4,-7,-22,0,-2,-4,-4,0,24/09/2020 15:59:42
-2,4,28,11,1,-1,0,0,24/09/2020 15:59:42
4,1,3,2,-2,-1,9,0,24/09/2020 15:59:42
-2,-3,-5,-6,2,-2,10,0,24/09/2020 15:59:42
4,-2,-5,8,-1,2,13,0,24/09/2020 15:59:42
-2,-3,1,-2,1,5,-5,0,24/09/2020 15:59:42
-2,11,4,16,-2,-1,15,0,24/09/2020 15:59:42
1,14,-2,-4,-1,1,-5,0,24/09/2020 15:59:43
-8,3,5,-5,-12,-2,12,0,24/09/2020 15:59:43
7,10,-6,-8,10,2,-26,0,24/09/2020 15:59:43
-10,-7,15,5,-4,-1,-2,0,24/09/2020 15:59:43
-4,1,-3,8,30,-2,-11,0,24/09/2020 15:59:43
-3,-14,-30,-28,-7,-9,-41,0,24/09/2020 15:59:43
-1,4,1,-4,-4,-1,0,0,24/09/2020 15:59:43
-9,-3,-7,1,6,0,-3,0,24/09/2020 15:59:43
8,10,4,9,0,2,-13,0,24/09/2020 15:59:43
15,1,-12,-13,-4,2,7,0,24/09/2020 15:59:43
-1,-5,3,12,28,7,12,0,24/09/2020 15:59:43
2,15,-3,-3,-1,1,21,0,24/09/2020 15:59:44
-2,-4,1,-6,-27,-2,-11,0,24/09/2020 15:59:44
0,5,-1,-5,1,-2,25,0,24/09/2020 15:59:44
-8,-21,10,-15,12,3,-2,0,24/09/2020 15:59:44
6,25,-3,-16,24,2,24,0,24/09/2020 15:59:44
8,-7,-9,-19,-11,-4,-35,0,24/09/2020 15:59:44
-3,1,-6,-1,42,-2,-40,0,24/09/2020 15:59:44
-6,2,7,-8,10,0,12,0,24/09/2020 15:59:44
2,-20,8,-2,-31,-3,-6,0,24/09/2020 15:59:44
23,11,-7,5,-6,0,5,0,24/09/2020 15:59:44
-7,-1,0,6,-5,-4,-3,0,24/09/2020 15:59:44
20,-10,-4,-9,-5,-2,-12,0,24/09/2020 15:59:44
12,5,2,4,3,-6,-12,0,24/09/2020 15:59:44
3,22,0,5,-18,-8,-1,0,24/09/2020 15:59:44
-3,23,0,9,15,2,-11,0,24/09/2020 15:59:44
5,18,-11,-6,-5,0,-7,0,24/09/2020 15:59:44
1,-1,0,2,4,4,9,0,24/09/2020 15:59:45
-12,-11,7,6,-8,2,-3,0,24/09/2020 15:59:45
-5,-13,0,3,-10,-6,-6,0,24/09/2020 15:59:45
-2,11,0,2,12,1,4,0,24/09/2020 15:59:45
6,9,11,5,-15,-5,8,0,24/09/2020 15:59:45
-15,-44,-3,0,-7,-4,4,0,24/09/2020 15:59:45
-9,9,-1,-10,-17,-3,-19,0,24/09/2020 15:59:45
3,-6,4,31,-3,-1,5,0,24/09/2020 15:59:45
-10,9,8,6,10,-1,-6,0,24/09/2020 15:59:45
-3,-9,3,26,-7,-4,2,0,24/09/2020 15:59:45
1,10,3,-36,4,-2,1,0,24/09/2020 15:59:46
8,-7,-3,-48,9,3,3,0,24/09/2020 15:59:46
-5,6,-4,45,6,0,-5,0,24/09/2020 15:59:46
-5,-5,2,-78,3,1,6,0,24/09/2020 15:59:46
2,13,-3,16,-7,1,-7,0,24/09/2020 15:59:46
-4,-1,-1,-14,-5,1,1,0,24/09/2020 15:59:46
4,-10,-2,-3,0,0,0,0,24/09/2020 15:59:46
-2,0,6,-1,5,3,1,0,24/09/2020 15:59:46
6,-3,6,-2,1,0,-9,0,24/09/2020 15:59:46
-2,-3,8,7,1,1,-1,0,24/09/2020 15:59:46
-5,7,3,-5,-2,-2,-1,0,24/09/2020 15:59:46
2,8,-3,-1,0,-1,-2,0,24/09/2020 15:59:46
-3,0,3,5,-2,-2,-1,0,24/09/2020 15:59:46
-5,10,-15,-38,-4,-10,-5,0,24/09/2020 15:59:46
-3,-26,-17,-35,-51,-50,-12,0,24/09/2020 15:59:46
-2,0,5,-14,-2,3,0,0,24/09/2020 15:59:47
-24,-33,3,5,-5,-1,0,0,24/09/2020 15:59:47
-4,-10,-11,-7,0,-2,2,0,24/09/2020 15:59:47
-1,-6,-12,-4,-5,-2,0,0,24/09/2020 15:59:47
-1,-8,-4,6,1,3,-1,0,24/09/2020 15:59:47
-5,-10,-2,11,-3,-4,0,0,24/09/2020 15:59:47
-7,-5,2,-2,-1,-1,0,0,24/09/2020 15:59:47
0,-5,-10,-4,-3,0,-1,0,24/09/2020 15:59:47
-2,0,1,-1,-5,-3,-3,0,24/09/2020 15:59:47
-2,-10,-7,-2,13,1,-1,0,24/09/2020 15:59:47
44,12,-28,-29,36,-29,4,0,24/09/2020 15:59:47
-43,79,50,-108,-36,-29,-8,0,24/09/2020 15:59:47
34,70,-26,-19,-39,13,16,0,24/09/2020 15:59:47
30,93,1,5,-14,-14,-17,0,24/09/2020 15:59:47
-5,-19,-7,-1,45,40,6,0,24/09/2020 15:59:47
-3,-6,0,-1,18,16,4,0,24/09/2020 15:59:48
-4,0,13,1,-3,13,-5,0,24/09/2020 15:59:48
-7,-7,-7,0,-5,-1,1,0,24/09/2020 15:59:48
-8,-5,3,2,3,-2,-2,0,24/09/2020 15:59:48
1,-3,-1,2,2,-4,-2,0,24/09/2020 15:59:48
-3,-4,-1,-3,-1,0,-1,0,24/09/2020 15:59:48
0,-1,2,0,-3,-2,-1,0,24/09/2020 15:59:48
3,-3,1,-1,7,12,1,0,24/09/2020 15:59:48
1,0,-6,1,2,1,-2,0,24/09/2020 15:59:49
-3,13,22,8,-4,-7,-8,0,24/09/2020 15:59:49
-5,-7,0,-5,4,17,31,0,24/09/2020 15:59:49
-73,-34,12,-45,25,108,-128,0,24/09/2020 15:59:49
22,12,-10,-49,5,-9,-2,0,24/09/2020 15:59:49
-70,83,64,-41,-101,-45,-116,0,24/09/2020 15:59:49
24,-13,-67,127,-77,42,64,0,24/09/2020 15:59:49
44,26,47,-77,-116,5,-73,0,24/09/2020 15:59:49
67,-6,64,-128,-57,-30,5,0,24/09/2020 15:59:49
-5,-29,-128,-47,-78,-7,-5,0,24/09/2020 15:59:49
-33,-16,106,-128,-6,0,-13,0,24/09/2020 15:59:49
22,23,94,4,-9,-10,14,0,24/09/2020 15:59:49
1,16,52,65,10,9,-1,0,24/09/2020 15:59:49
16,18,-22,-83,-6,-1,-2,0,24/09/2020 15:59:49
5,11,-2,-78,1,-5,-2,0,24/09/2020 15:59:49
-7,19,-10,-7,-2,0,5,0,24/09/2020 15:59:49
7,-1,-12,42,-4,-3,-5,0,24/09/2020 15:59:50
4,-3,2,-53,4,3,2,0,24/09/2020 15:59:50
-7,-4,2,16,3,4,-1,0,24/09/2020 15:59:50
7,6,11,-32,7,2,3,0,24/09/2020 15:59:50
3,-4,-4,0,-4,-3,-4,0,24/09/2020 15:59:50
3,2,1,2,-3,0,-1,0,24/09/2020 15:59:50
4,8,-2,16,3,-1,-1,0,24/09/2020 15:59:50
0,-6,-1,16,-1,1,0,0,24/09/2020 15:59:50
0,7,4,0,6,1,1,0,24/09/2020 15:59:50
0,-1,-9,-7,-2,0,-3,0,24/09/2020 15:59:50
7,0,-13,14,-2,-9,-17,0,24/09/2020 15:59:50
-119,-69,51,1,46,63,113,0,24/09/2020 15:59:50
-118,-89,39,-1,12,-8,5,0,24/09/2020 15:59:51
-33,-62,-27,-48,-31,-7,-21,0,24/09/2020 15:59:51
-38,31,19,24,4,3,14,0,24/09/2020 15:59:51
-53,-62,-16,-38,-43,-33,-27,0,24/09/2020 15:59:51
10,14,14,26,15,24,22,0,24/09/2020 15:59:51
14,1,-14,-21,7,-3,8,0,24/09/2020 15:59:51
18,52,-1,18,-10,-37,-18,0,24/09/2020 15:59:51
8,-15,-20,-21,0,-33,-34,0,24/09/2020 15:59:51
8,19,-4,24,-14,-6,5,0,24/09/2020 15:59:51
22,-13,6,13,-16,3,-3,0,24/09/2020 15:59:51
18,-9,1,13,3,10,19,0,24/09/2020 15:59:51
-1,-45,7,-21,-8,-4,6,0,24/09/2020 15:59:51
-44,-34,2,-8,6,-2,-5,0,24/09/2020 15:59:51
-17,49,12,0,-8,-13,-24,0,24/09/2020 15:59:51
28,8,13,-10,-14,-6,21,0,24/09/2020 15:59:52
40,-5,9,19,2,8,26,0,24/09/2020 15:59:52
-37,-8,-7,-9,4,-38,-12,0,24/09/2020 15:59:52
-50,-2,-4,-16,0,2,-7,0,24/09/2020 15:59:52
-27,31,-2,-12,-4,-1,-19,0,24/09/2020 15:59:52
86,14,-10,-20,4,12,-12,0,24/09/2020 15:59:52
8,-13,-6,-4,-17,-17,1,0,24/09/2020 15:59:52
31,-9,-2,9,-1,-20,-40,0,24/09/2020 15:59:52
13,-2,-18,-24,-7,24,4,0,24/09/2020 15:59:52
-22,11,-11,7,21,-7,-4,0,24/09/2020 15:59:52
-33,-83,-7,-3,9,-8,-4,0,24/09/2020 15:59:52
-29,10,-13,-12,39,7,-9,0,24/09/2020 15:59:52
0,22,4,13,29,-8,-7,0,24/09/2020 15:59:52
-51,-35,-4,-9,-24,-19,-20,0,24/09/2020 15:59:52
15,-5,17,-2,5,10,17,0,24/09/2020 15:59:52
-41,-30,-22,-14,10,1,-12,0,24/09/2020 15:59:52
6,22,7,6,-6,17,-1,0,24/09/2020 15:59:53
4,-1,0,-1,3,-6,-1,0,24/09/2020 15:59:53
-3,-6,-45,0,-2,-2,-7,0,24/09/2020 15:59:53
3,-1,-10,8,-3,-4,0,0,24/09/2020 15:59:53
3,11,5,-7,-5,-4,0,0,24/09/2020 15:59:53
-5,9,7,-2,-2,-4,-2,0,24/09/2020 15:59:53
1,0,1,26,6,2,-1,0,24/09/2020 15:59:53
-4,-13,-25,-14,1,-6,-3,0,24/09/2020 15:59:53
-4,0,0,-2,-3,-2,-1,0,24/09/2020 15:59:53
0,20,28,-6,5,-1,-2,0,24/09/2020 15:59:53
0,5,-21,0,-3,0,-1,0,24/09/2020 15:59:54
-1,5,-13,-18,-5,0,-1,0,24/09/2020 15:59:54
0,-1,-11,-10,-2,1,0,0,24/09/2020 15:59:54
-1,-5,-8,-3,-3,-2,-3,0,24/09/2020 15:59:54
-1,-5,-23,-13,-3,0,0,0,24/09/2020 15:59:54
1,10,15,-6,-2,-1,1,0,24/09/2020 15:59:54
6,9,-2,-7,-3,-3,1,0,24/09/2020 15:59:54
3,6,-5,-9,-6,-3,0,0,24/09/2020 15:59:54
-1,-7,5,-6,-1,-1,2,0,24/09/2020 15:59:54
-7,-4,-2,4,-2,-1,-2,0,24/09/2020 15:59:54
-6,0,10,-2,-5,-3,-5,0,24/09/2020 15:59:54
-4,6,4,6,0,0,-2,0,24/09/2020 15:59:54
-8,-8,-1,-11,-6,-3,-3,0,24/09/2020 15:59:54
3,0,-20,-5,1,0,0,0,24/09/2020 15:59:54
2,6,-3,-5,-3,-2,0,0,24/09/2020 15:59:54
2,-2,-3,-6,0,-3,0,0,24/09/2020 15:59:54
2,3,-12,-8,-5,-1,0,0,24/09/2020 15:59:55
4,6,-9,-1,5,0,0,0,24/09/2020 15:59:55
-1,8,14,-3,5,1,-1,0,24/09/2020 15:59:55
-1,0,3,-2,-1,-4,-3,0,24/09/2020 15:59:55
-4,-7,-8,-12,-6,-2,0,0,24/09/2020 15:59:55
0,-1,-6,-4,-3,-2,-1,0,24/09/2020 15:59:55
5,-4,-15,-16,-1,0,0,0,24/09/2020 15:59:55
-1,-3,-5,1,-1,-4,-3,0,24/09/2020 15:59:55
1,3,-8,-16,-3,-5,0,0,24/09/2020 15:59:55
4,6,5,6,-5,-6,-7,0,24/09/2020 15:59:55
8,2,-21,-13,0,1,0,0,24/09/2020 15:59:56
-4,-8,9,0,5,-2,-2,0,24/09/2020 15:59:56
-7,10,17,10,-9,-4,-5,0,24/09/2020 15:59:56
1,-4,-7,-4,-8,-2,2,0,24/09/2020 15:59:56
0,1,-13,-9,0,0,-2,0,24/09/2020 15:59:56
-4,-1,6,4,-4,-3,0,0,24/09/2020 15:59:56
0,1,3,-7,-2,0,0,0,24/09/2020 15:59:56
-1,-5,-3,-8,-3,0,-1,0,24/09/2020 15:59:56
0,-6,-12,-3,-3,-4,-1,0,24/09/2020 15:59:56
3,3,1,9,-2,-2,-1,0,24/09/2020 15:59:56
2,4,-2,4,-2,1,-1,0,24/09/2020 15:59:56
-2,-8,-1,-5,-3,-1,-2,0,24/09/2020 15:59:56
-1,-6,2,-11,1,-3,-1,0,24/09/2020 15:59:56
-3,-4,-5,-11,-2,-2,-2,0,24/09/2020 15:59:56
6,5,-5,-1,10,1,4,0,24/09/2020 15:59:57
1,-7,-4,0,-2,1,4,0,24/09/2020 15:59:57
2,-13,-17,4,-7,-2,0,0,24/09/2020 15:59:57
-1,-4,-9,-3,-1,-5,1,0,24/09/2020 15:59:57
-1,-6,-8,-9,-7,1,-1,0,24/09/2020 15:59:57
5,5,6,1,1,-1,1,0,24/09/2020 15:59:57
1,-4,1,-1,-5,-1,3,0,24/09/2020 15:59:57
-2,1,5,10,1,-2,-1,0,24/09/2020 15:59:57
2,-3,4,0,-4,-1,-2,0,24/09/2020 15:59:57
-3,1,2,1,0,-2,-2,0,24/09/2020 15:59:57
0,-2,-8,-3,-1,0,-2,0,24/09/2020 15:59:57
-3,-1,-2,-3,0,-3,-1,0,24/09/2020 15:59:57
3,6,23,4,-1,-1,-2,0,24/09/2020 15:59:57
1,-1,-8,13,3,1,-2,0,24/09/2020 15:59:57
-2,-1,7,-6,-3,-1,1,0,24/09/2020 15:59:57
-2,1,-11,-14,-1,-1,3,0,24/09/2020 15:59:57
-2,8,8,7,-2,-1,-3,0,24/09/2020 15:59:58
-3,-15,-12,16,4,0,1,0,24/09/2020 15:59:58
1,3,-6,3,-2,-1,-1,0,24/09/2020 15:59:58
-2,0,0,-9,-8,-3,0,0,24/09/2020 15:59:58
-1,-3,-4,-8,-2,1,-1,0,24/09/2020 15:59:58
-3,-2,4,-6,-11,-4,-3,0,24/09/2020 15:59:58
-5,-13,-10,2,-2,-2,-2,0,24/09/2020 15:59:58
2,2,-9,10,11,-1,-2,0,24/09/2020 15:59:58
-1,5,7,9,2,1,-3,0,24/09/2020 15:59:58
2,0,-8,9,-5,-1,-2,0,24/09/2020 15:59:58
-5,-3,2,2,-11,1,2,0,24/09/2020 15:59:58
0,3,10,11,-7,1,0,0,24/09/2020 15:59:59
-4,-2,5,8,3,-3,-18,0,24/09/2020 15:59:59
1,-1,1,5,-1,0,3,0,24/09/2020 15:59:59
-3,3,8,1,3,-1,-5,0,24/09/2020 15:59:59
11,10,31,7,6,4,2,0,24/09/2020 15:59:59
0,-4,-7,0,-3,-3,-5,0,24/09/2020 15:59:59
-1,5,9,12,-1,-1,-4,0,24/09/2020 15:59:59
-4,-4,-4,4,-1,0,2,0,24/09/2020 15:59:59
2,-6,-3,4,7,-3,0,0,24/09/2020 15:59:59
-2,9,15,5,3,5,3,0,24/09/2020 15:59:59
0,-2,-22,-5,2,2,-2,0,24/09/2020 15:59:59
3,2,5,0,3,-1,-1,0,24/09/2020 15:59:59
0,0,0,0,0,0,0,0,24/09/2020 16:04:48
-3,-5,-15,-3,-2,-2,-1,0,24/09/2020 16:04:48
-1,-5,1,0,0,-1,-1,0,24/09/2020 16:04:49
3,-10,-22,-7,1,2,0,0,24/09/2020 16:04:49
-3,1,-4,0,-1,1,-1,0,24/09/2020 16:04:49
-2,-2,5,2,-1,-1,1,0,24/09/2020 16:04:49
-3,-5,-1,0,-1,0,0,0,24/09/2020 16:04:50
0,-1,8,-2,-3,-1,-1,0,24/09/2020 16:04:50
-2,1,3,-2,-2,-2,0,0,24/09/2020 16:04:50
-2,5,11,5,-1,0,1,0,24/09/2020 16:04:50
-1,-4,-5,0,1,-1,2,0,24/09/2020 16:04:50
0,-1,-20,-6,-4,1,-4,0,24/09/2020 16:04:50
0,1,-6,2,0,0,-2,0,24/09/2020 16:04:50
0,-8,-29,-6,2,1,2,0,24/09/2020 16:04:50
0,0,7,7,2,-1,-3,0,24/09/2020 16:04:50
1,4,1,0,3,2,7,0,24/09/2020 16:04:50
2,2,2,3,4,2,2,0,24/09/2020 16:04:50
-1,-2,4,1,-2,-3,-3,0,24/09/2020 16:04:50
-1,2,9,-1,-1,-1,-3,0,24/09/2020 16:04:50
-1,1,7,4,1,-1,1,0,24/09/2020 16:04:51
4,-5,-20,-3,0,3,6,0,24/09/2020 16:04:51
-4,5,15,1,-5,-1,-6,0,24/09/2020 16:04:51
0,0,2,2,-2,0,1,0,24/09/2020 16:04:51
-1,-2,-35,-4,0,-1,5,0,24/09/2020 16:04:51
7,11,19,31,0,6,4,0,24/09/2020 16:04:51
3,6,-21,-20,1,1,1,0,24/09/2020 16:04:51
4,27,47,13,5,1,1,0,24/09/2020 16:04:51
3,21,-5,-34,-7,-3,-3,0,24/09/2020 16:04:51
22,40,-18,22,34,14,25,0,24/09/2020 16:04:51
27,103,-55,-74,9,2,-33,0,24/09/2020 16:04:51
-101,-128,-10,-16,23,-65,-27,0,24/09/2020 16:04:51
6,-57,25,-93,-90,-61,-20,0,24/09/2020 16:04:51
-27,-68,-52,-34,12,-32,-1,0,24/09/2020 16:04:51
18,124,26,-109,-35,16,-28,0,24/09/2020 16:04:51
28,30,1,-4,-3,35,-51,0,24/09/2020 16:04:51
56,84,1,34,24,-42,-47,0,24/09/2020 16:04:51
-8,8,-4,-48,-20,-52,-55,0,24/09/2020 16:04:52
-32,-41,32,54,9,-28,-66,0,24/09/2020 16:04:52
-35,-34,-31,11,20,-29,-36,0,24/09/2020 16:04:52
-1,15,35,25,2,21,49,0,24/09/2020 16:04:52
14,-32,-17,72,78,17,28,0,24/09/2020 16:04:52
-6,17,13,-26,-27,-12,-30,0,24/09/2020 16:04:52
-23,-69,77,45,-50,24,30,0,24/09/2020 16:04:52
-19,-126,-28,-5,-37,-16,-50,0,24/09/2020 16:04:53
-15,-7,4,59,119,58,-19,0,24/09/2020 16:04:53
-12,-10,-6,5,27,-16,7,0,24/09/2020 16:04:53
-31,-1,-24,-66,-31,-8,-47,0,24/09/2020 16:04:53
-22,-58,-2,-15,28,-27,-20,0,24/09/2020 16:04:53
20,38,-15,-128,-128,3,89,0,24/09/2020 16:04:53
-45,-56,-27,-76,-35,-8,-90,0,24/09/2020 16:04:53
-17,-51,-24,-32,-99,-24,-20,0,24/09/2020 16:04:53
13,11,-18,-23,52,-77,-110,0,24/09/2020 16:04:53
-26,-4,12,21,67,63,72,0,24/09/2020 16:04:53
-42,-128,30,-128,-13,38,12,0,24/09/2020 16:04:53
-12,-29,-31,-20,-15,-2,23,0,24/09/2020 16:04:53
-33,-84,-11,-14,31,-11,-8,0,24/09/2020 16:04:53
-20,-13,19,24,-6,20,73,0,24/09/2020 16:04:53
25,26,-42,-6,27,8,9,0,24/09/2020 16:04:53
-14,-19,-6,-5,4,-6,-4,0,24/09/2020 16:04:54
0,-15,-2,-2,-7,-10,-1,0,24/09/2020 16:04:54
-7,-6,2,9,0,-3,-5,0,24/09/2020 16:04:54
3,18,66,1,14,1,-2,0,24/09/2020 16:04:54
7,-1,8,3,4,1,4,0,24/09/2020 16:04:54
1,12,47,3,0,-7,-5,0,24/09/2020 16:04:54
-4,-17,-41,-6,-2,3,-1,0,24/09/2020 16:04:54
7,10,15,4,0,1,3,0,24/09/2020 16:04:54
-14,3,-36,-4,-6,-5,-7,0,24/09/2020 16:04:54
-10,-29,-16,5,5,2,4,0,24/09/2020 16:04:54
14,41,19,-2,0,0,-1,0,24/09/2020 16:04:54
13,50,26,17,40,5,-2,0,24/09/2020 16:04:54
-3,31,33,30,67,-14,-17,0,24/09/2020 16:04:54
41,22,-11,25,71,24,17,0,24/09/2020 16:04:55
12,10,27,-17,-8,-17,-18,0,24/09/2020 16:04:55
-6,-23,26,10,5,-9,-15,0,24/09/2020 16:04:55
-5,-5,26,-1,-56,-15,8,0,24/09/2020 16:04:55
18,52,31,11,-9,3,-9,0,24/09/2020 16:04:55
1,-8,43,3,-12,-6,-2,0,24/09/2020 16:04:55
-9,-14,-36,-14,-8,-3,-1,0,24/09/2020 16:04:55
1,5,-2,14,-3,2,-1,0,24/09/2020 16:04:55
0,-18,-9,3,2,-23,3,0,24/09/2020 16:04:55
-3,-3,-24,-10,11,21,0,0,24/09/2020 16:04:55
4,15,24,8,7,1,0,0,24/09/2020 16:04:55
0,-10,-20,-8,3,-4,0,0,24/09/2020 16:04:55
-1,10,8,3,2,4,-15,0,24/09/2020 16:04:55
-5,-6,-17,-8,-6,-3,1,0,24/09/2020 16:04:56
1,11,26,7,0,0,-7,0,24/09/2020 16:04:56
0,9,44,1,3,2,0,0,24/09/2020 16:04:56
0,0,-12,-3,8,12,-1,0,24/09/2020 16:04:56
-4,-2,30,-5,1,-5,0,0,24/09/2020 16:04:56
0,4,17,17,2,-1,2,0,24/09/2020 16:04:56
-1,-1,9,7,8,2,0,0,24/09/2020 16:04:56
-3,0,5,-8,-13,-2,-7,0,24/09/2020 16:04:56
-2,0,-6,-6,4,0,-42,0,24/09/2020 16:04:56
-1,-6,-9,-12,-1,-2,3,0,24/09/2020 16:04:56
1,-15,-24,-11,-3,0,4,0,24/09/2020 16:04:56
-3,1,-5,4,0,-1,0,0,24/09/2020 16:04:56
0,0,0,0,0,0,0,0,24/09/2020 16:07:04
4,5,2,1,2,3,3,0,24/09/2020 16:07:04
-2,22,-4,7,-12,-3,-1,0,24/09/2020 16:07:05
-1,8,5,2,-1,-3,-4,0,24/09/2020 16:07:05
3,6,-2,-4,-3,0,1,0,24/09/2020 16:07:05
1,3,-9,-6,-7,-2,-1,0,24/09/2020 16:07:05
4,0,-11,-5,-12,-1,-1,0,24/09/2020 16:07:05
1,0,5,-3,5,-2,-2,0,24/09/2020 16:07:06
-2,-5,7,8,17,-2,-3,0,24/09/2020 16:07:06
0,0,-1,3,1,-3,-1,0,24/09/2020 16:07:06
5,18,10,6,-1,1,0,0,24/09/2020 16:07:06
5,1,-9,6,-2,2,2,0,24/09/2020 16:07:06
-7,30,8,-2,7,0,-2,0,24/09/2020 16:07:06
3,6,9,2,36,7,2,0,24/09/2020 16:07:06
-1,-25,-7,-11,-36,-7,1,0,24/09/2020 16:07:06
-33,-43,12,-2,-50,6,-1,0,24/09/2020 16:07:06
-5,-93,1,-15,12,17,5,0,24/09/2020 16:07:06
18,-23,-36,-5,-30,0,-1,0,24/09/2020 16:07:06
1,40,90,27,-2,-4,-62,0,24/09/2020 16:07:06
-2,-20,54,13,-35,5,-17,0,24/09/2020 16:07:06
-26,-14,97,-20,-36,-12,-52,0,24/09/2020 16:07:07
-24,-58,101,47,27,20,-75,0,24/09/2020 16:07:07
-8,-33,19,3,-6,67,22,0,24/09/2020 16:07:07
-20,-70,3,3,38,-3,7,0,24/09/2020 16:07:07
-11,-43,-31,-7,0,-13,-28,0,24/09/2020 16:07:07
-29,18,-23,-21,7,-62,-70,0,24/09/2020 16:07:07
-26,-1,24,-7,-4,18,-9,0,24/09/2020 16:07:07
-12,-15,-17,3,-10,-53,55,0,24/09/2020 16:07:07
11,26,26,-11,-32,25,18,0,24/09/2020 16:07:07
-21,-83,-28,23,35,-9,-4,0,24/09/2020 16:07:08
-24,-42,-10,4,25,-15,-38,0,24/09/2020 16:07:08
10,30,16,5,3,0,-16,0,24/09/2020 16:07:08
-13,14,-30,-2,2,-23,-48,0,24/09/2020 16:07:08
-2,-30,12,-15,-52,-27,-25,0,24/09/2020 16:07:08
-5,27,83,5,9,-22,-29,0,24/09/2020 16:07:08
-13,-40,-16,-24,-34,-29,-4,0,24/09/2020 16:07:08
-6,-45,-30,9,-3,-7,12,0,24/09/2020 16:07:08
-4,-7,-9,-2,-2,0,-44,0,24/09/2020 16:07:08
-3,3,6,-6,-8,-3,7,0,24/09/2020 16:07:08
-2,-8,-2,-4,-6,-5,-1,0,24/09/2020 16:07:08
2,-11,-53,-9,-1,-1,9,0,24/09/2020 16:07:08
1,-8,-46,-8,-5,-9,5,0,24/09/2020 16:07:08
10,9,23,25,12,6,17,0,24/09/2020 16:07:09
-2,6,20,0,-8,-4,-5,0,24/09/2020 16:07:09
-3,-9,-30,-15,-6,-2,-4,0,24/09/2020 16:07:09
0,-9,-32,-7,4,1,3,0,24/09/2020 16:07:09
-1,-12,-22,-13,-3,1,38,0,24/09/2020 16:07:09
0,-3,-10,-5,-2,1,-13,0,24/09/2020 16:07:09
2,7,13,1,2,-1,3,0,24/09/2020 16:07:09
2,-26,-15,-8,0,0,8,0,24/09/2020 16:07:09
0,0,-8,-7,-5,-2,-1,0,24/09/2020 16:07:09
0,-15,3,-5,8,19,18,0,24/09/2020 16:07:10
2,-46,-40,-16,-5,2,3,0,24/09/2020 16:07:10
0,2,-6,-16,-14,-6,-2,0,24/09/2020 16:07:10
6,-24,-21,-9,4,2,3,0,24/09/2020 16:07:10
-4,-7,-15,14,-15,-8,-15,0,24/09/2020 16:07:10
20,9,-8,-61,37,58,62,0,24/09/2020 16:07:10
14,20,-46,-33,0,10,18,0,24/09/2020 16:07:10
21,20,41,-34,-41,23,-4,0,24/09/2020 16:07:10
-54,-85,52,-33,57,-105,-41,0,24/09/2020 16:07:10
-31,-118,-24,0,26,11,-40,0,24/09/2020 16:07:10
-64,25,-8,-18,-57,-41,-41,0,24/09/2020 16:07:11
74,120,-14,-99,-5,57,-31,0,24/09/2020 16:07:11
-23,-14,3,-31,-111,-27,-33,0,24/09/2020 16:07:11
-1,-6,-61,-4,10,0,5,0,24/09/2020 16:07:11
-30,-60,-24,1,-7,-28,-12,0,24/09/2020 16:07:11
8,61,101,22,-33,10,7,0,24/09/2020 16:07:11
11,12,46,57,42,2,13,0,24/09/2020 16:07:11
-4,4,20,-20,-16,1,-3,0,24/09/2020 16:07:11
-4,4,20,-14,-3,-8,-6,0,24/09/2020 16:07:11
-3,-3,25,9,4,3,-2,0,24/09/2020 16:07:11
1,-1,-18,0,2,1,2,0,24/09/2020 16:07:11
-1,0,-10,-12,0,-1,-1,0,24/09/2020 16:07:11
1,-1,-2,-2,0,1,2,0,24/09/2020 16:07:12
-20,-6,-3,-19,-14,1,-1,0,24/09/2020 16:07:12
-115,50,0,2,26,18,7,0,24/09/2020 16:07:12
95,86,7,25,-2,-34,8,0,24/09/2020 16:07:12
31,-43,12,27,20,14,26,0,24/09/2020 16:07:12
72,14,-64,-48,8,-2,76,0,24/09/2020 16:07:12
-70,54,16,23,-6,-39,-55,0,24/09/2020 16:07:12
56,44,-30,98,35,62,1,0,24/09/2020 16:07:12
61,-31,7,30,-3,25,-80,0,24/09/2020 16:07:13
44,30,-40,-59,-43,-12,-49,0,24/09/2020 16:07:13
28,-79,-28,-12,12,-3,18,0,24/09/2020 16:07:13
9,3,-56,30,108,53,59,0,24/09/2020 16:07:13
-9,-29,-75,-4,-40,-26,-10,0,24/09/2020 16:07:13
6,26,106,26,20,4,-6,0,24/09/2020 16:07:13
6,3,14,-9,-3,22,-2,0,24/09/2020 16:07:13
-6,0,7,1,0,3,-3,0,24/09/2020 16:07:13
-16,-7,4,-12,-2,-4,-6,0,24/09/2020 16:07:13
0,2,3,-1,0,-5,-3,0,24/09/2020 16:07:13
-14,16,-22,26,0,2,4,0,24/09/2020 16:07:13
13,35,7,-22,59,103,127,0,24/09/2020 16:07:14
18,104,-13,-40,39,29,49,0,24/09/2020 16:07:14
7,-9,9,80,41,6,41,0,24/09/2020 16:07:14
-67,-77,-54,-79,-87,22,52,0,24/09/2020 16:07:14
57,47,55,19,19,-11,-43,0,24/09/2020 16:07:14
-33,-30,13,-31,-46,-14,-6,0,24/09/2020 16:07:14
11,83,-18,-1,127,50,22,0,24/09/2020 16:07:14
-25,-40,-14,-17,-98,-98,-84,0,24/09/2020 16:07:14
-74,24,16,0,-51,-26,7,0,24/09/2020 16:07:15
30,-22,13,59,10,6,-12,0,24/09/2020 16:07:15
87,-4,-20,-8,10,87,7,0,24/09/2020 16:07:15
-25,-47,-20,98,9,-16,-36,0,24/09/2020 16:07:15
-109,-100,-28,-34,-9,-102,-100,0,24/09/2020 16:07:15
-32,-58,15,-91,-13,2,-21,0,24/09/2020 16:07:15
24,74,-16,5,-20,14,25,0,24/09/2020 16:07:15
-30,18,9,6,-9,19,25,0,24/09/2020 16:07:15
25,19,27,-3,-7,3,-9,0,24/09/2020 16:07:15
-5,-2,-76,-2,30,-11,2,0,24/09/2020 16:07:15
-10,-12,-19,-11,-16,-8,-15,0,24/09/2020 16:07:15
9,2,-21,-2,1,2,4,0,24/09/2020 16:07:16
3,8,-5,-8,-25,-1,-5,0,24/09/2020 16:07:16
4,-3,-8,-4,-5,-1,-1,0,24/09/2020 16:07:16
10,49,-8,54,-84,-25,-14,0,24/09/2020 16:07:16
-69,-101,-27,-63,-94,-53,-61,0,24/09/2020 16:07:16
-44,-68,3,-37,-21,14,-5,0,24/09/2020 16:07:16
-52,-52,-21,56,127,-3,-48,0,24/09/2020 16:07:16
-10,45,-2,-57,-82,-17,1,0,24/09/2020 16:07:16
36,88,0,33,110,-58,-35,0,24/09/2020 16:07:16
-40,-48,-23,-39,-31,-111,-104,0,24/09/2020 16:07:16
-4,-14,-6,-29,-7,14,16,0,24/09/2020 16:07:17
1,0,-4,13,-19,-25,-4,0,24/09/2020 16:07:17
1,-69,-8,-7,-5,10,3,0,24/09/2020 16:07:17
7,19,-5,-24,4,1,-2,0,24/09/2020 16:07:17
-2,24,13,4,14,-11,-9,0,24/09/2020 16:07:17
-25,33,-2,5,89,7,-13,0,24/09/2020 16:07:17
-3,45,12,58,26,28,3,0,24/09/2020 16:07:17
-7,-39,-9,34,-37,-21,-9,0,24/09/2020 16:07:17
-12,-110,17,56,55,25,14,0,24/09/2020 16:07:18
9,-4,-10,9,-29,-47,-62,0,24/09/2020 16:07:18
26,39,-4,18,30,16,35,0,24/09/2020 16:07:18
30,42,-3,1,-1,-63,-46,0,24/09/2020 16:07:18
22,27,-6,14,27,43,48,0,24/09/2020 16:07:18
-2,12,-8,-8,-18,23,-25,0,24/09/2020 16:07:18
-19,-66,4,3,-1,-17,-16,0,24/09/2020 16:07:18
33,26,-19,-17,40,62,61,0,24/09/2020 16:07:18
-13,-14,3,23,25,-8,-28,0,24/09/2020 16:07:18
12,-45,-21,62,11,13,32,0,24/09/2020 16:07:18
-7,-74,-7,-53,-47,37,41,0,24/09/2020 16:07:18
-1,2,5,-6,-22,10,-13,0,24/09/2020 16:07:18
-8,-17,-5,-5,-2,-1,16,0,24/09/2020 16:07:19
16,28,12,5,47,25,-4,0,24/09/2020 16:07:19
-20,-34,-79,-35,15,4,-5,0,24/09/2020 16:07:19
-1,-11,-31,7,0,8,-1,0,24/09/2020 16:07:19
-5,-3,-14,1,9,6,-2,0,24/09/2020 16:07:19
3,10,0,-1,-16,6,2,0,24/09/2020 16:07:19
1,3,2,5,3,0,0,0,24/09/2020 16:07:19
-46,0,2,2,2,1,0,0,24/09/2020 16:07:20
11,3,-2,-9,-1,0,-3,0,24/09/2020 16:07:20
-11,2,0,-2,1,-1,-2,0,24/09/2020 16:07:20
25,10,4,23,-2,-1,10,0,24/09/2020 16:07:20
15,-51,-27,-25,-42,67,3,0,24/09/2020 16:07:20
-13,-34,1,-50,-36,-21,11,0,24/09/2020 16:07:20
14,3,-22,-64,-68,22,-6,0,24/09/2020 16:07:20
3,17,6,-28,8,0,-8,0,24/09/2020 16:07:20
8,22,-2,-3,-11,2,7,0,24/09/2020 16:07:20
-2,-19,16,37,39,6,-22,0,24/09/2020 16:07:20
20,64,0,43,37,8,10,0,24/09/2020 16:07:21
-1,-33,-16,28,57,1,22,0,24/09/2020 16:07:21
29,43,-37,81,71,-6,38,0,24/09/2020 16:07:21
16,-19,-29,-26,-11,4,-8,0,24/09/2020 16:07:21
-12,-21,-1,-10,80,66,40,0,24/09/2020 16:07:21
-10,54,38,18,-62,0,71,0,24/09/2020 16:07:21
-26,-81,1,-29,74,17,-15,0,24/09/2020 16:07:21
2,59,25,34,26,6,-4,0,24/09/2020 16:07:21
-10,-13,62,27,31,30,70,0,24/09/2020 16:07:21
7,-1,5,13,-21,31,95,0,24/09/2020 16:07:22
6,15,13,-10,15,-75,-36,0,24/09/2020 16:07:22
23,59,0,31,54,27,-11,0,24/09/2020 16:07:22
23,-1,4,52,40,-77,-27,0,24/09/2020 16:07:22
-26,-91,-38,-28,25,9,-38,0,24/09/2020 16:07:22
-11,-50,-41,8,-38,-36,-16,0,24/09/2020 16:07:22
-13,10,-3,26,19,30,54,0,24/09/2020 16:07:22
-5,-5,4,5,-48,-32,-23,0,24/09/2020 16:07:22
-2,17,27,18,104,15,8,0,24/09/2020 16:07:22
-17,-7,1,2,9,-1,12,0,24/09/2020 16:07:23
-1,2,-4,0,0,1,-1,0,24/09/2020 16:07:23
-3,-11,-2,1,-2,-5,0,0,24/09/2020 16:07:23
-2,3,-1,0,-4,10,-1,0,24/09/2020 16:07:23
-15,-11,-8,-1,0,-8,-4,0,24/09/2020 16:07:23
-3,-3,2,0,-10,-16,-4,0,24/09/2020 16:07:23
-10,-5,-4,-3,1,0,-5,0,24/09/2020 16:07:23
-3,-12,-1,3,4,-6,9,0,24/09/2020 16:07:23
1,1,-1,0,-10,-12,-8,0,24/09/2020 16:07:23
0,-5,1,-6,-15,6,0,0,24/09/2020 16:07:23
5,-2,-3,1,9,-9,-9,0,24/09/2020 16:07:23
10,6,7,23,44,15,13,0,24/09/2020 16:07:24
-1,23,7,-6,-8,-1,13,0,24/09/2020 16:07:24
4,41,-5,-19,-12,-7,-6,0,24/09/2020 16:07:24
7,24,13,56,25,65,98,0,24/09/2020 16:07:24
-4,-31,-7,-40,-73,13,-49,0,24/09/2020 16:07:24
0,19,25,-19,25,82,1,0,24/09/2020 16:07:24
4,39,26,-25,10,81,7,0,24/09/2020 16:07:25
-8,-10,-11,-61,-26,-31,-13,0,24/09/2020 16:07:25
-13,-18,18,22,-18,8,5,0,24/09/2020 16:07:25
4,15,17,-14,-3,-4,-49,0,24/09/2020 16:07:25
-10,-20,-33,0,2,-4,0,0,24/09/2020 16:07:25
-8,-15,-19,-17,-23,-26,-5,0,24/09/2020 16:07:25
-6,-9,5,-4,-8,-1,4,0,24/09/2020 16:07:25
-4,6,-10,18,3,2,-4,0,24/09/2020 16:07:25
-2,-14,-20,-5,-2,0,2,0,24/09/2020 16:07:25
-3,-35,-51,-30,-5,2,6,0,24/09/2020 16:07:25
4,0,7,-6,15,8,18,0,24/09/2020 16:07:26
-6,-14,-20,-46,-22,-7,9,0,24/09/2020 16:07:26
9,12,11,34,29,9,4,0,24/09/2020 16:07:26
3,21,45,5,-1,-6,-10,0,24/09/2020 16:07:26
5,15,17,15,7,4,0,0,24/09/2020 16:07:26
-4,-6,-12,-10,-17,-14,-8,0,24/09/2020 16:07:26
1,2,9,-3,2,5,21,0,24/09/2020 16:07:26
-6,-6,-2,3,0,1,1,0,24/09/2020 16:07:26
11,18,7,0,3,4,2,0,24/09/2020 16:07:27
0,0,0,0,0,0,0,0,24/09/2020 16:08:15
3,-4,-11,22,19,17,1,0,24/09/2020 16:08:15
-4,33,4,29,-1,12,24,0,24/09/2020 16:08:16
-32,-51,25,11,-37,-24,-5,0,24/09/2020 16:08:16
-2,57,12,6,-23,-20,-55,0,24/09/2020 16:08:16
8,13,7,7,1,-5,21,0,24/09/2020 16:08:17
14,24,0,-1,17,12,4,0,24/09/2020 16:08:17
5,15,24,6,13,-7,17,0,24/09/2020 16:08:17
-21,-112,-35,-3,32,9,2,0,24/09/2020 16:08:17
-32,-11,14,17,23,-8,-2,0,24/09/2020 16:08:17
-38,-68,5,14,-25,-21,-65,0,24/09/2020 16:08:17
-11,-45,-12,4,0,2,2,0,24/09/2020 16:08:17
-34,-68,-10,-4,10,-2,-34,0,24/09/2020 16:08:17
18,38,-14,9,-10,-16,-28,0,24/09/2020 16:08:17
4,23,3,-5,-17,-5,2,0,24/09/2020 16:08:17
-10,-22,-7,-5,-2,7,11,0,24/09/2020 16:08:18
-6,-15,-11,-1,6,-1,-4,0,24/09/2020 16:08:18
-2,19,8,2,-2,-1,-2,0,24/09/2020 16:08:18
12,35,13,-6,0,0,2,0,24/09/2020 16:08:18
-2,0,-9,8,1,-3,0,0,24/09/2020 16:08:18
5,9,1,11,-2,1,2,0,24/09/2020 16:08:18
-3,37,6,2,3,-2,-2,0,24/09/2020 16:08:18
-21,-43,2,-6,-4,-2,-1,0,24/09/2020 16:08:18
12,5,-19,2,0,-2,0,0,24/09/2020 16:08:18
-22,-99,-11,-6,-2,3,5,0,24/09/2020 16:08:18
10,40,6,7,3,1,2,0,24/09/2020 16:08:18
2,49,5,0,-4,-4,-1,0,24/09/2020 16:08:18
-1,-19,2,0,-4,-2,0,0,24/09/2020 16:08:18
4,16,8,-6,-2,-2,0,0,24/09/2020 16:08:19
-17,-78,-12,-8,-6,-1,0,0,24/09/2020 16:08:19
-3,-48,-10,-7,29,-2,4,0,24/09/2020 16:08:19
30,-18,-44,10,49,-8,-10,0,24/09/2020 16:08:19
-64,-10,50,-37,33,-3,27,0,24/09/2020 16:08:19
-36,18,72,-24,-64,-27,-23,0,24/09/2020 16:08:19
12,-12,-24,-53,-1,-23,-29,0,24/09/2020 16:08:19
28,-79,-25,61,-10,-12,1,0,24/09/2020 16:08:19
20,89,15,46,59,-13,-20,0,24/09/2020 16:08:20
-45,-63,-21,2,-79,-25,-58,0,24/09/2020 16:08:20
-94,-86,-2,-52,-36,-44,-78,0,24/09/2020 16:08:20
19,27,9,-46,-12,22,32,0,24/09/2020 16:08:20
7,33,37,-44,-51,-8,8,0,24/09/2020 16:08:20
-18,-51,-7,-6,-31,18,-28,0,24/09/2020 16:08:20
6,17,-10,-17,-63,-38,-31,0,24/09/2020 16:08:20
7,-17,-18,1,-6,4,-13,0,24/09/2020 16:08:20
1,0,0,6,0,5,3,0,24/09/2020 16:08:20
1,-12,-13,-5,1,1,0,0,24/09/2020 16:08:20
1,6,11,11,-9,-1,2,0,24/09/2020 16:08:20
-1,-8,-15,1,1,-1,2,0,24/09/2020 16:08:20
-1,15,32,12,4,-2,0,0,24/09/2020 16:08:20
-5,-6,-2,-3,-3,-1,-2,0,24/09/2020 16:08:21
-2,-7,-5,0,-1,-3,-1,0,24/09/2020 16:08:21
-4,-2,-3,-1,-2,-2,-3,0,24/09/2020 16:08:21
0,-3,-4,9,4,-2,-1,0,24/09/2020 16:08:21
-2,0,-26,-1,2,-1,-2,0,24/09/2020 16:08:21
-3,11,-22,-8,-1,-2,-3,0,24/09/2020 16:08:21
-13,-37,-7,-2,-1,-2,-4,0,24/09/2020 16:08:21
-1,-4,-9,-6,-3,-3,-1,0,24/09/2020 16:08:21
-1,6,1,18,-40,-7,-2,0,24/09/2020 16:08:22
-22,-61,17,17,-21,-17,5,0,24/09/2020 16:08:22
-27,-58,-5,-20,1,15,-15,0,24/09/2020 16:08:22
3,-15,6,127,62,24,16,0,24/09/2020 16:08:22
-1,6,-12,-7,62,-16,-11,0,24/09/2020 16:08:22
-6,41,8,84,18,-9,13,0,24/09/2020 16:08:22
2,36,-1,26,51,-30,-4,0,24/09/2020 16:08:22
26,79,-14,36,58,2,-4,0,24/09/2020 16:08:22
12,-29,4,-71,-31,-4,37,0,24/09/2020 16:08:22
-3,36,12,11,15,2,-25,0,24/09/2020 16:08:22
33,-17,-29,22,24,2,-92,0,24/09/2020 16:08:22
-13,62,38,-25,-98,-35,-14,0,24/09/2020 16:08:23
19,53,-5,64,34,24,63,0,24/09/2020 16:08:23
-87,-121,-35,-10,51,-2,9,0,24/09/2020 16:08:23
-10,-2,-11,-18,-17,-5,-9,0,24/09/2020 16:08:23
-2,-4,8,17,8,2,1,0,24/09/2020 16:08:23
10,15,5,21,-8,-6,-7,0,24/09/2020 16:08:23
-4,-6,-2,-13,-15,4,3,0,24/09/2020 16:08:23
9,7,10,34,25,30,21,0,24/09/2020 16:08:23
7,9,-5,-11,-15,-27,-1,0,24/09/2020 16:08:23
3,8,-3,-10,1,-2,-1,0,24/09/2020 16:08:23
-16,-32,-3,2,-2,-1,2,0,24/09/2020 16:08:24
12,5,2,4,0,1,-1,0,24/09/2020 16:08:24
50,4,0,-25,5,-18,-23,0,24/09/2020 16:08:24
-43,-11,-128,-69,-128,-65,12,0,24/09/2020 16:08:24
-52,79,-96,31,-51,68,20,0,24/09/2020 16:08:24
9,-76,-17,2,18,-53,-124,0,24/09/2020 16:08:24
21,-128,-101,28,-20,-48,-60,0,24/09/2020 16:08:24
-23,79,22,1,13,-84,30,0,24/09/2020 16:08:24
-15,3,38,-7,32,-56,-34,0,24/09/2020 16:08:25
-103,-19,-20,-43,-82,5,32,0,24/09/2020 16:08:25
26,7,-20,44,-26,19,1,0,24/09/2020 16:08:25
66,87,29,-31,-42,20,40,0,24/09/2020 16:08:25
44,27,-5,9,-58,-8,-12,0,24/09/2020 16:08:25
-4,12,-4,-7,9,1,16,0,24/09/2020 16:08:25
25,20,1,-11,-2,-3,10,0,24/09/2020 16:08:25
-5,0,10,8,-3,-4,1,0,24/09/2020 16:08:25
0,-5,-5,35,-2,1,0,0,24/09/2020 16:08:25
-3,-5,10,35,12,5,0,0,24/09/2020 16:08:25
-4,-17,-52,-30,-8,-9,-5,0,24/09/2020 16:08:26
-2,-8,-6,-4,-5,0,-1,0,24/09/2020 16:08:26
-5,-3,-11,8,15,7,-1,0,24/09/2020 16:08:26
9,66,14,-13,0,1,0,0,24/09/2020 16:08:26
4,-3,-52,-16,4,2,4,0,24/09/2020 16:08:26
-7,-21,-70,-5,-5,-5,-2,0,24/09/2020 16:08:26
-18,-29,-90,-18,-2,-15,-7,0,24/09/2020 16:08:26
-10,-3,-32,-10,15,57,7,0,24/09/2020 16:08:27
6,-4,-20,-13,1,0,-5,0,24/09/2020 16:08:27
-13,-16,4,0,4,1,-3,0,24/09/2020 16:08:27
9,8,7,5,1,0,-1,0,24/09/2020 16:08:27
6,1,0,3,-3,-1,1,0,24/09/2020 16:08:27
8,-4,-1,7,21,4,0,0,24/09/2020 16:08:27
-10,20,6,-18,2,3,4,0,24/09/2020 16:08:27
-21,-33,-3,-2,-25,-5,-4,0,24/09/2020 16:08:27
-47,13,-1,8,-15,-24,-20,0,24/09/2020 16:08:27
24,53,31,-2,-60,-11,19,0,24/09/2020 16:08:27
35,-46,-17,-15,-35,-34,-25,0,24/09/2020 16:08:27
14,-18,-39,2,-13,3,7,0,24/09/2020 16:08:28
-1,57,-11,-28,3,20,16,0,24/09/2020 16:08:28
-112,42,-10,-59,15,1,-7,0,24/09/2020 16:08:28
-29,-18,20,38,22,15,-20,0,24/09/2020 16:08:28
29,70,43,2,-46,37,67,0,24/09/2020 16:08:28
67,4,19,19,37,-2,4,0,24/09/2020 16:08:28
-58,40,4,-23,2,-13,-28,0,24/09/2020 16:08:28
-43,31,12,22,41,2,-21,0,24/09/2020 16:08:28
0,-7,5,-4,5,-11,-4,0,24/09/2020 16:08:29
0,1,4,-1,6,0,-3,0,24/09/2020 16:08:29
2,-1,-2,4,5,3,0,0,24/09/2020 16:08:29
-2,-4,0,2,-6,7,-5,0,24/09/2020 16:08:29
0,0,29,4,5,-2,-8,0,24/09/2020 16:08:29
0,-36,-2,1,-1,2,-1,0,24/09/2020 16:08:29
-1,-12,7,0,4,-3,1,0,24/09/2020 16:08:29
-2,1,-3,-7,1,-3,0,0,24/09/2020 16:08:29
-1,2,-1,0,4,2,1,0,24/09/2020 16:08:30
-1,-6,-8,-3,-7,-3,-2,0,24/09/2020 16:08:30
4,1,0,0,1,-1,-1,0,24/09/2020 16:08:30
-6,-3,-4,-1,-9,-7,-4,0,24/09/2020 16:08:30
10,17,-3,-24,-19,-10,-4,0,24/09/2020 16:08:30
-44,-22,6,22,58,-20,-38,0,24/09/2020 16:08:30
-23,-15,-5,0,-25,15,4,0,24/09/2020 16:08:30
6,43,16,27,33,5,5,0,24/09/2020 16:08:30
-88,-32,11,13,5,-24,8,0,24/09/2020 16:08:30
27,-50,-54,-93,-9,-23,-37,0,24/09/2020 16:08:30
31,101,3,7,25,12,-7,0,24/09/2020 16:08:30
-21,-69,-17,-23,24,-45,-43,0,24/09/2020 16:08:31
55,-40,-14,-8,2,-23,-45,0,24/09/2020 16:08:31
3,39,9,15,12,9,21,0,24/09/2020 16:08:31
5,9,-1,-1,-5,-5,5,0,24/09/2020 16:08:31
-6,-8,-8,-5,0,2,-9,0,24/09/2020 16:08:31
3,-7,-22,1,5,-9,-2,0,24/09/2020 16:08:31
-13,-13,-61,-28,-9,-5,-8,0,24/09/2020 16:08:32
6,-46,-65,-8,-2,12,-2,0,24/09/2020 16:08:32
0,0,-12,-10,-7,3,2,0,24/09/2020 16:08:32
-4,-19,-9,4,10,-3,-5,0,24/09/2020 16:08:32
-6,-12,-11,4,-3,6,-4,0,24/09/2020 16:08:32
3,-5,-1,25,4,1,4,0,24/09/2020 16:08:32
6,2,-12,-8,3,3,0,0,24/09/2020 16:08:32
-5,-10,1,-5,-4,7,2,0,24/09/2020 16:08:32
2,6,3,-2,-7,-8,-2,0,24/09/2020 16:08:32
-4,5,4,1,2,6,2,0,24/09/2020 16:08:32
3,15,11,13,-16,-4,7,0,24/09/2020 16:08:33
5,-2,-17,-6,4,5,11,0,24/09/2020 16:08:33
3,19,4,0,-3,2,4,0,24/09/2020 16:08:33
0,-7,-36,-12,-8,0,1,0,24/09/2020 16:08:33
0,7,-12,1,-4,0,12,0,24/09/2020 16:08:33
-1,4,5,-5,0,-1,1,0,24/09/2020 16:08:33
-4,-9,-7,1,1,0,-3,0,24/09/2020 16:08:33
-2,-1,-1,-2,-5,1,1,0,24/09/2020 16:08:34
0,0,0,0,0,0,0,0,24/09/2020 16:09:26
-3,1,9,-2,-8,-5,-3,0,24/09/2020 16:09:26
-1,0,-4,-3,-2,-2,0,0,24/09/2020 16:09:27
0,1,1,1,4,0,-1,0,24/09/2020 16:09:27
-1,3,4,0,-1,-2,0,0,24/09/2020 16:09:27
-2,0,1,5,-3,-2,-1,0,24/09/2020 16:09:27
-1,-3,-1,-2,-2,1,0,0,24/09/2020 16:09:28
-2,2,8,-2,6,1,-1,0,24/09/2020 16:09:28
-3,7,28,6,0,-7,-2,0,24/09/2020 16:09:28
0,-2,-6,-1,0,-1,-1,0,24/09/2020 16:09:28
-2,0,5,2,-1,-3,-1,0,24/09/2020 16:09:28
2,-6,-19,-7,-1,0,1,0,24/09/2020 16:09:28
0,-2,-5,-1,-5,0,2,0,24/09/2020 16:09:28
2,-11,-14,-2,-1,0,1,0,24/09/2020 16:09:28
-2,-6,-1,-1,-4,0,-1,0,24/09/2020 16:09:29
1,-9,-24,-5,1,1,0,0,24/09/2020 16:09:29
-2,7,15,3,0,-1,-2,0,24/09/2020 16:09:29
0,2,4,1,-2,-3,1,0,24/09/2020 16:09:29
-1,15,31,7,2,1,-2,0,24/09/2020 16:09:29
-1,-5,0,1,1,0,0,0,24/09/2020 16:09:29
-3,3,10,-4,0,1,0,0,24/09/2020 16:09:29
-2,1,-1,1,-1,-3,-1,0,24/09/2020 16:09:29
-2,8,18,0,-1,-4,-3,0,24/09/2020 16:09:29
-1,0,-2,1,1,3,2,0,24/09/2020 16:09:29
-1,-2,-1,-2,-2,-4,-1,0,24/09/2020 16:09:29
1,6,10,2,9,3,1,0,24/09/2020 16:09:29
0,-8,-23,-5,-2,1,1,0,24/09/2020 16:09:29
-3,3,10,2,-1,-3,0,0,24/09/2020 16:09:30
0,-11,-19,-2,-5,1,1,0,24/09/2020 16:09:30
0,0,3,0,0,1,1,0,24/09/2020 16:09:30
-1,-8,-13,-5,-1,2,0,0,24/09/2020 16:09:30
-1,-6,-5,-1,-1,-5,-4,0,24/09/2020 16:09:30
1,-8,-11,4,0,1,1,0,24/09/2020 16:09:30
3,2,2,-1,-1,0,-1,0,24/09/2020 16:09:30
-2,-9,-9,-4,1,1,0,0,24/09/2020 16:09:30
0,-4,-25,-4,-1,10,3,0,24/09/2020 16:09:31
-1,1,3,-1,-4,-2,-3,0,24/09/2020 16:09:31
-2,-1,-6,-3,-1,1,2,0,24/09/2020 16:09:31
-1,-1,4,-1,2,-2,-2,0,24/09/2020 16:09:31
0,-4,-6,-2,0,0,-1,0,24/09/2020 16:09:31
0,3,9,-1,0,1,-3,0,24/09/2020 16:09:31
-2,-1,-5,-7,-5,0,-2,0,24/09/2020 16:09:31
1,0,-1,-2,1,-2,0,0,24/09/2020 16:09:31
-1,-1,-2,-1,1,1,-1,0,24/09/2020 16:09:31
-2,-1,1,-2,-5,-3,-3,0,24/09/2020 16:09:31
3,6,-3,-1,1,0,0,0,24/09/2020 16:09:31
0,-3,-10,0,-2,-7,-6,0,24/09/2020 16:09:31
0,1,4,0,-2,-7,-6,0,24/09/2020 16:09:32
-1,0,-4,-2,0,-2,-2,0,24/09/2020 16:09:32
0,-2,-14,-3,1,1,2,0,24/09/2020 16:09:32
-1,-1,-1,-1,-1,11,1,0,24/09/2020 16:09:32
0,-2,0,0,1,-3,-1,0,24/09/2020 16:09:32
-2,3,8,1,0,-1,-2,0,24/09/2020 16:09:32
-3,-2,-3,-2,-1,0,0,0,24/09/2020 16:09:32
-3,-3,-2,-1,0,1,-1,0,24/09/2020 16:09:32
-1,4,7,-2,-1,-1,0,0,24/09/2020 16:09:33
-9,-35,-84,-12,-4,-4,-2,0,24/09/2020 16:09:33
-4,-8,-18,-9,1,-1,-1,0,24/09/2020 16:09:33
7,-36,1,-8,-9,2,3,0,24/09/2020 16:09:33
0,30,15,39,8,36,23,0,24/09/2020 16:09:33
-14,-47,14,-38,-23,-49,-37,0,24/09/2020 16:09:33
17,71,13,-10,-19,-14,-5,0,24/09/2020 16:09:33
31,17,3,-2,-9,3,17,0,24/09/2020 16:09:33
25,1,-6,60,-72,-4,13,0,24/09/2020 16:09:33
-2,-6,18,-46,-51,-24,-18,0,24/09/2020 16:09:33
13,25,8,31,43,-2,13,0,24/09/2020 16:09:34
24,114,28,12,22,-3,4,0,24/09/2020 16:09:34
37,-46,-45,76,86,2,-15,0,24/09/2020 16:09:34
-23,25,-29,-13,-30,-4,-9,0,24/09/2020 16:09:34
-99,-101,-110,29,3,14,2,0,24/09/2020 16:09:34
64,127,127,-24,12,127,65,0,24/09/2020 16:09:34
53,-14,-81,22,-96,22,53,0,24/09/2020 16:09:34
-117,-109,-65,47,-2,-31,-75,0,24/09/2020 16:09:34
103,84,15,-69,-71,-25,15,0,24/09/2020 16:09:34
-30,17,7,16,99,0,-34,0,24/09/2020 16:09:34
-94,-125,-69,15,-32,-69,-80,0,24/09/2020 16:09:35
83,-13,46,-8,-49,2,38,0,24/09/2020 16:09:35
-6,25,8,-2,-33,10,8,0,24/09/2020 16:09:35
-9,-14,-12,19,-30,-1,-3,0,24/09/2020 16:09:35
5,6,17,-4,-21,0,-1,0,24/09/2020 16:09:35
-21,-3,10,-10,-8,7,-2,0,24/09/2020 16:09:35
-1,-4,-15,-18,-4,14,-15,0,24/09/2020 16:09:35
13,8,16,-8,21,12,6,0,24/09/2020 16:09:36
-5,4,38,3,-3,2,-2,0,24/09/2020 16:09:36
1,1,18,3,3,21,6,0,24/09/2020 16:09:36
9,5,2,8,4,-2,2,0,24/09/2020 16:09:36
-1,0,-4,1,3,5,6,0,24/09/2020 16:09:36
12,-73,-30,-33,20,-6,-6,0,24/09/2020 16:09:36
58,108,1,-40,19,-10,1,0,24/09/2020 16:09:36
-34,-36,16,75,-50,65,4,0,24/09/2020 16:09:36
-42,16,-25,-35,-3,-28,-9,0,24/09/2020 16:09:36
-18,-38,-30,9,39,-7,-54,0,24/09/2020 16:09:36
17,42,44,35,74,19,16,0,24/09/2020 16:09:37
-1,-10,66,19,-22,-44,-3,0,24/09/2020 16:09:37
-47,102,-1,-31,-10,-53,-66,0,24/09/2020 16:09:37
127,100,-23,40,-37,12,47,0,24/09/2020 16:09:37
-82,-17,-49,-104,-17,68,63,0,24/09/2020 16:09:37
-2,-2,-30,-4,-43,-48,-18,0,24/09/2020 16:09:37
-28,-86,-124,-16,31,40,47,0,24/09/2020 16:09:37
19,-64,46,-96,-33,-6,30,0,24/09/2020 16:09:38
-128,29,-81,-56,-42,-46,-105,0,24/09/2020 16:09:38
96,-117,-53,1,26,1,-17,0,24/09/2020 16:09:38
-5,-11,4,17,30,-33,-5,0,24/09/2020 16:09:38
69,-17,68,46,56,31,-32,0,24/09/2020 16:09:38
-59,-31,-9,12,34,2,59,0,24/09/2020 16:09:38
4,-53,-32,29,8,15,-9,0,24/09/2020 16:09:38
26,-49,-3,-6,66,8,9,0,24/09/2020 16:09:38
-5,28,-22,-17,-6,40,12,0,24/09/2020 16:09:38
81,18,38,-14,0,24,46,0,24/09/2020 16:09:38
73,49,-16,22,44,-10,-12,0,24/09/2020 16:09:39
2,0,29,74,0,-30,-8,0,24/09/2020 16:09:39
72,83,96,60,48,-34,9,0,24/09/2020 16:09:39
-12,47,19,14,2,-24,-55,0,24/09/2020 16:09:39
-45,-35,-55,-47,-35,-44,-69,0,24/09/2020 16:09:39
-51,-15,7,18,32,29,2,0,24/09/2020 16:09:39
20,27,9,14,41,42,14,0,24/09/2020 16:09:39
-44,-3,-5,-7,-18,-11,-28,0,24/09/2020 16:09:39
0,4,-2,1,10,15,4,0,24/09/2020 16:09:39
1,-54,-74,-4,-11,6,3,0,24/09/2020 16:09:40
2,27,29,3,3,-1,-4,0,24/09/2020 16:09:40
-4,-8,9,-1,-2,-11,-3,0,24/09/2020 16:09:40
-6,3,7,-9,-1,-2,-3,0,24/09/2020 16:09:40
-7,-6,-8,-11,-6,0,-2,0,24/09/2020 16:09:40
-1,6,10,3,0,1,1,0,24/09/2020 16:09:40
-6,-22,-61,-21,-2,3,2,0,24/09/2020 16:09:40
-1,0,-12,-14,-2,-15,0,0,24/09/2020 16:09:40
5,4,2,-6,-8,-1,-1,0,24/09/2020 16:09:41
-2,-6,-6,-7,-22,-10,-1,0,24/09/2020 16:09:41
-3,5,2,8,-1,2,-2,0,24/09/2020 16:09:41
-2,-6,-8,6,-6,-10,-5,0,24/09/2020 16:09:41
-7,-8,-32,-6,11,0,8,0,24/09/2020 16:09:41
6,24,22,2,19,-39,5,0,24/09/2020 16:09:41
-2,-23,-50,-18,-5,-2,0,0,24/09/2020 16:09:41
0,0,0,0,0,0,0,0,24/09/2020 16:10:00
-1,2,9,1,-3,-1,-2,0,24/09/2020 16:10:01
-3,2,5,2,-1,-1,-2,0,24/09/2020 16:10:01
1,-4,0,1,1,-1,0,0,24/09/2020 16:10:02
28,101,97,52,16,9,7,0,24/09/2020 16:10:02
-34,-77,-15,8,19,0,-3,0,24/09/2020 16:10:02
9,19,-9,-8,3,1,-1,0,24/09/2020 16:10:02
6,-14,-30,-6,-1,2,1,0,24/09/2020 16:10:02
-2,1,-24,-8,17,1,-2,0,24/09/2020 16:10:02
-2,-22,-1,-2,6,0,1,0,24/09/2020 16:10:03
-33,-28,36,-6,-4,-10,-10,0,24/09/2020 16:10:03
4,-5,-14,-33,-79,-3,-4,0,24/09/2020 16:10:03
-4,26,-4,-12,-33,-13,9,0,24/09/2020 16:10:03
-26,-93,-50,-74,-19,-31,-23,0,24/09/2020 16:10:03
-1,-1,25,33,48,16,10,0,24/09/2020 16:10:03
15,13,-25,-2,-52,-20,-30,0,24/09/2020 16:10:03
-52,-74,-44,-2,15,-22,-38,0,24/09/2020 16:10:03
11,11,-11,5,16,27,27,0,24/09/2020 16:10:03
-27,-65,-47,21,-6,-9,-5,0,24/09/2020 16:10:03
17,-27,11,14,34,40,80,0,24/09/2020 16:10:03
-24,-31,-22,-40,-9,-15,-17,0,24/09/2020 16:10:04
7,-2,-11,-1,-32,-62,-76,0,24/09/2020 16:10:04
11,43,-27,-2,-12,37,16,0,24/09/2020 16:10:04
-15,-44,3,4,-27,15,-10,0,24/09/2020 16:10:04
-25,-28,-13,0,3,-11,-20,0,24/09/2020 16:10:04
-1,42,3,-7,-14,-22,-36,0,24/09/2020 16:10:04
2,20,20,-7,1,-6,-25,0,24/09/2020 16:10:04
-2,-14,8,3,-2,-2,1,0,24/09/2020 16:10:04
-2,3,-4,0,0,-2,-1,0,24/09/2020 16:10:05
-1,24,-4,1,0,0,0,0,24/09/2020 16:10:05
3,18,-2,-8,2,-1,-1,0,24/09/2020 16:10:05
-5,-7,2,-5,0,0,-1,0,24/09/2020 16:10:05
2,-11,1,4,1,0,3,0,24/09/2020 16:10:05
2,7,5,5,4,-1,-1,0,24/09/2020 16:10:05
-9,-26,-7,2,-3,1,0,0,24/09/2020 16:10:05
3,3,-5,-9,-1,-3,-2,0,24/09/2020 16:10:05
2,3,-6,-14,-2,1,-2,0,24/09/2020 16:10:05
3,11,-3,4,-5,-1,-1,0,24/09/2020 16:10:06
-8,-21,-9,-3,0,-2,-1,0,24/09/2020 16:10:06
-2,-32,1,1,-5,3,2,0,24/09/2020 16:10:06
14,38,-21,-19,-6,-2,0,0,24/09/2020 16:10:06
-4,4,38,-7,6,22,16,0,24/09/2020 16:10:06
1,-11,10,-5,3,4,-1,0,24/09/2020 16:10:06
0,17,8,15,4,1,1,0,24/09/2020 16:10:06
1,2,-2,19,17,-2,1,0,24/09/2020 16:10:06
5,-1,-19,-30,-37,-2,0,0,24/09/2020 16:10:06
-7,-7,3,-16,-4,-4,-5,0,24/09/2020 16:10:06
13,27,7,43,15,9,6,0,24/09/2020 16:10:07
1,20,1,7,15,-3,-2,0,24/09/2020 16:10:07
-8,-40,6,8,6,0,-3,0,24/09/2020 16:10:07
-2,9,2,-3,-1,3,0,0,24/09/2020 16:10:07
-4,20,1,-1,-29,-2,0,0,24/09/2020 16:10:07
0,-3,-4,8,3,2,0,0,24/09/2020 16:10:07
-3,1,8,-22,14,4,10,0,24/09/2020 16:10:08
-3,1,-5,-12,0,2,1,0,24/09/2020 16:10:08
-5,-15,4,12,4,0,2,0,24/09/2020 16:10:08
1,26,3,-3,0,0,1,0,24/09/2020 16:10:08
-15,-30,0,-3,8,-6,-5,0,24/09/2020 16:10:08
-7,-8,-9,-11,-8,-5,4,0,24/09/2020 16:10:08
63,7,2,2,-2,-11,-4,0,24/09/2020 16:10:08
-33,6,-6,60,-72,-41,-29,0,24/09/2020 16:10:08
-128,44,-10,18,43,-66,42,0,24/09/2020 16:10:08
-58,-45,-40,-1,5,-22,-100,0,24/09/2020 16:10:08
-128,-128,-23,-38,-75,3,11,0,24/09/2020 16:10:09
-48,12,30,22,34,24,-48,0,24/09/2020 16:10:09
93,26,-1,-49,35,67,29,0,24/09/2020 16:10:09
25,-108,-4,7,21,-35,-38,0,24/09/2020 16:10:09
-90,75,15,40,96,46,83,0,24/09/2020 16:10:09
-59,20,-38,-39,-44,20,19,0,24/09/2020 16:10:09
-20,19,11,42,-38,-2,17,0,24/09/2020 16:10:10
-85,-23,-40,-46,-73,1,-6,0,24/09/2020 16:10:10
-39,42,21,37,40,-2,9,0,24/09/2020 16:10:10
-28,-24,-3,-25,36,-38,-90,0,24/09/2020 16:10:10
-127,-60,12,-24,-13,-27,-2,0,24/09/2020 16:10:10
2,-43,17,-14,8,24,6,0,24/09/2020 16:10:10
125,-42,-39,14,-34,-6,27,0,24/09/2020 16:10:10
81,91,-5,95,78,30,31,0,24/09/2020 16:10:10
6,-72,-22,2,-15,46,-23,0,24/09/2020 16:10:10
-91,-118,-2,-31,17,22,-1,0,24/09/2020 16:10:11
-14,-22,-7,-16,-37,-24,-20,0,24/09/2020 16:10:11
-51,-18,17,3,29,25,-8,0,24/09/2020 16:10:11
-28,-40,1,17,18,26,1,0,24/09/2020 16:10:11
-112,10,-7,51,15,-6,-22,0,24/09/2020 16:10:11
-22,15,-1,-30,-1,-8,-23,0,24/09/2020 16:10:11
-9,-5,-5,-4,-5,-6,-10,0,24/09/2020 16:10:11
-4,-3,-19,-5,-1,7,0,0,24/09/2020 16:10:11
1,-5,22,-2,1,0,-1,0,24/09/2020 16:10:12
7,2,-10,4,1,2,2,0,24/09/2020 16:10:12
-2,-3,3,-1,-2,0,0,0,24/09/2020 16:10:12
-3,-1,-3,-1,1,0,-2,0,24/09/2020 16:10:12
-1,1,3,0,-2,4,0,0,24/09/2020 16:10:12
-3,-1,-1,0,-1,-2,0,0,24/09/2020 16:10:12
-3,0,2,-2,0,-1,1,0,24/09/2020 16:10:12
2,0,-2,0,-1,-1,-2,0,24/09/2020 16:10:13
0,1,-7,-3,2,1,1,0,24/09/2020 16:10:13
1,-1,-6,-1,-3,19,2,0,24/09/2020 16:10:13
-3,2,3,-3,3,-3,-2,0,24/09/2020 16:10:13
-5,0,15,1,-2,-8,-3,0,24/09/2020 16:10:13
8,4,4,1,-7,-19,-1,0,24/09/2020 16:10:13
-13,2,2,5,4,-2,0,0,24/09/2020 16:10:13
2,5,0,-5,3,-5,-2,0,24/09/2020 16:10:13
16,49,-19,11,-32,-2,4,0,24/09/2020 16:10:13
-47,74,1,-84,-86,43,74,0,24/09/2020 16:10:14
-76,-4,17,-8,52,33,30,0,24/09/2020 16:10:14
47,39,6,-8,-15,12,28,0,24/09/2020 16:10:14
3,57,31,-23,39,2,37,0,24/09/2020 16:10:14
-57,-41,-1,-71,17,4,-11,0,24/09/2020 16:10:14
23,-31,-10,-14,29,-26,-59,0,24/09/2020 16:10:14
30,13,-3,-40,-120,-8,32,0,24/09/2020 16:10:15
69,-5,45,-40,-57,-1,35,0,24/09/2020 16:10:15
-44,-85,-2,44,-7,-33,-36,0,24/09/2020 16:10:15
10,-9,13,61,27,10,31,0,24/09/2020 16:10:15
-17,6,-1,39,26,-4,-16,0,24/09/2020 16:10:15
34,-83,-1,52,-4,2,15,0,24/09/2020 16:10:15
-10,27,-2,-47,-54,-49,-28,0,24/09/2020 16:10:15
-1,21,-39,-4,52,-23,-17,0,24/09/2020 16:10:15
-14,10,0,6,32,-6,6,0,24/09/2020 16:10:15
-33,-24,15,24,56,32,27,0,24/09/2020 16:10:15
-25,-28,-3,-20,7,-5,-16,0,24/09/2020 16:10:16
-6,60,-13,-29,-5,-5,-19,0,24/09/2020 16:10:16
33,-7,-4,16,71,4,18,0,24/09/2020 16:10:16
14,3,-18,-14,-10,12,5,0,24/09/2020 16:10:16
2,0,-1,-5,17,-7,2,0,24/09/2020 16:10:16
3,13,27,9,13,8,-6,0,24/09/2020 16:10:16
2,0,-7,1,-2,-1,0,0,24/09/2020 16:10:16
-5,0,-1,-3,-3,-2,-2,0,24/09/2020 16:10:17
-15,-15,19,3,0,1,-1,0,24/09/2020 16:10:17
3,-1,-3,1,-1,-1,-3,0,24/09/2020 16:10:17
2,-19,17,-3,-1,0,2,0,24/09/2020 16:10:17
-3,-4,-6,-3,-2,0,-1,0,24/09/2020 16:10:17
-2,27,17,17,1,5,3,0,24/09/2020 16:10:17
-84,-61,-8,14,48,38,1,0,24/09/2020 16:10:17
-102,-29,-41,-32,-71,-85,-128,0,24/09/2020 16:10:18
-10,-117,-15,89,-33,-4,8,0,24/09/2020 16:10:18
-13,-108,37,-52,-2,-3,15,0,24/09/2020 16:10:18
-30,-8,21,-5,20,-10,-17,0,24/09/2020 16:10:18
57,66,-30,-1,-40,10,5,0,24/09/2020 16:10:18
4,-21,8,3,-22,-14,5,0,24/09/2020 16:10:18
20,-9,7,7,-3,-4,4,0,24/09/2020 16:10:18
-24,-54,27,33,-5,7,5,0,24/09/2020 16:10:18
12,20,-2,-1,8,0,7,0,24/09/2020 16:10:18
6,8,-10,-9,-3,30,11,0,24/09/2020 16:10:18
3,7,19,9,1,9,2,0,24/09/2020 16:10:19
1,4,23,4,-6,-12,-4,0,24/09/2020 16:10:19
-1,-14,11,2,24,39,6,0,24/09/2020 16:10:19
-6,-17,-21,-23,-1,3,4,0,24/09/2020 16:10:19
-1,-3,-13,-14,-1,11,11,0,24/09/2020 16:10:19
-3,-3,4,-15,-2,-3,-3,0,24/09/2020 16:10:20
3,8,2,5,1,0,0,0,24/09/2020 16:10:20
0,4,2,3,-2,1,0,0,24/09/2020 16:10:20
2,4,1,-7,2,-2,0,0,24/09/2020 16:10:20
-5,-3,-3,19,0,-1,-4,0,24/09/2020 16:10:20
2,2,5,7,-3,-2,-1,0,24/09/2020 16:10:20
-2,-2,-7,-20,-8,3,0,0,24/09/2020 16:10:20
-1,-3,2,-6,-2,-1,0,0,24/09/2020 16:10:20
1,2,-8,0,-3,-7,0,0,24/09/2020 16:10:20
0,-3,-11,5,2,2,0,0,24/09/2020 16:10:21
3,0,-14,13,0,4,1,0,24/09/2020 16:10:21
-5,-3,1,-16,2,0,-2,0,24/09/2020 16:10:21
12,3,1,-14,1,-1,-3,0,24/09/2020 16:10:21
-16,-13,37,-80,-11,-7,12,0,24/09/2020 16:10:21
39,18,-2,0,6,1,-1,0,24/09/2020 16:10:21
0,-40,-2,-3,9,-2,6,0,24/09/2020 16:10:21
36,-21,-14,-4,-7,-11,-20,0,24/09/2020 16:10:22
-22,-20,-13,14,0,3,-23,0,24/09/2020 16:10:22
-48,-14,-3,-7,-5,-8,-11,0,24/09/2020 16:10:22
-20,21,66,19,-1,6,17,0,24/09/2020 16:10:22
31,-2,1,18,-1,-6,-4,0,24/09/2020 16:10:22
-68,-19,-8,5,-9,8,-4,0,24/09/2020 16:10:22
-31,11,11,8,0,14,-9,0,24/09/2020 16:10:22
61,22,9,-10,2,-21,7,0,24/09/2020 16:10:22
20,-18,-14,-16,5,1,18,0,24/09/2020 16:10:23
102,42,1,-6,4,5,9,0,24/09/2020 16:10:23
72,20,-17,-9,-6,-1,9,0,24/09/2020 16:10:23
-11,-2,-7,-1,-2,4,7,0,24/09/2020 16:10:23
-116,-28,10,5,9,14,-2,0,24/09/2020 16:10:23
9,9,14,7,3,15,17,0,24/09/2020 16:10:23
-52,-23,-13,-6,-10,-9,-8,0,24/09/2020 16:10:23
1,-4,3,0,-4,-18,-2,0,24/09/2020 16:10:23
5,8,9,-8,-16,5,4,0,24/09/2020 16:10:24
-3,0,-2,-6,3,5,-3,0,24/09/2020 16:10:24
5,2,0,-47,6,8,2,0,24/09/2020 16:10:24
-2,-2,-6,-2,1,7,-2,0,24/09/2020 16:10:24
2,0,7,8,7,-9,-2,0,24/09/2020 16:10:24
-1,-1,-6,2,-3,-4,0,0,24/09/2020 16:10:24
-3,-2,-10,8,-3,-9,-3,0,24/09/2020 16:10:25
-1,-1,1,4,-7,-5,8,0,24/09/2020 16:10:25
0,2,14,6,-12,-7,-4,0,24/09/2020 16:10:25
3,0,-3,-13,-2,-6,0,0,24/09/2020 16:10:25
-1,3,12,-8,1,4,0,0,24/09/2020 16:10:25
3,7,8,-6,3,-5,-1,0,24/09/2020 16:10:25
4,1,-3,-1,-12,-6,2,0,24/09/2020 16:10:25
-3,-1,-3,0,1,-1,-1,0,24/09/2020 16:10:25
-1,2,3,-4,-2,-7,0,0,24/09/2020 16:10:25
-9,-3,-1,0,-2,-3,-3,0,24/09/2020 16:10:26
1,-2,-2,35,-1,-5,-7,0,24/09/2020 16:10:26
0,0,-2,-1,13,-11,0,0,24/09/2020 16:10:26
-2,-4,-13,-1,-3,-12,-6,0,24/09/2020 16:10:26
1,-2,-10,-2,-4,-2,1,0,24/09/2020 16:10:26
-3,-3,-2,2,9,6,3,0,24/09/2020 16:10:26
-5,-3,-8,-9,-8,13,1,0,24/09/2020 16:10:27
1,2,-2,3,9,-2,-3,0,24/09/2020 16:10:27
2,1,0,7,5,-1,0,0,24/09/2020 16:10:27
-1,-2,-12,-23,0,2,-2,0,24/09/2020 16:10:27
-2,-6,-6,-25,-3,-3,0,0,24/09/2020 16:10:27
-1,2,5,4,2,0,0,0,24/09/2020 16:10:27
1,1,-6,-8,13,-5,-1,0,24/09/2020 16:10:27
2,5,11,-6,2,1,-1,0,24/09/2020 16:10:27
3,-3,-21,27,2,2,1,0,24/09/2020 16:10:28
1,0,-9,5,0,1,0,0,24/09/2020 16:10:28
17,4,16,38,2,0,1,0,24/09/2020 16:10:28
-42,-23,-1,-2,0,-10,-7,0,24/09/2020 16:10:28
12,13,62,10,10,1,6,0,24/09/2020 16:10:28
-36,-77,-23,7,3,-6,-8,0,24/09/2020 16:10:28
-27,-53,-5,-15,-1,-10,-8,0,24/09/2020 16:10:28
20,127,-48,0,5,11,3,0,24/09/2020 16:10:28
-54,-67,-17,-6,21,-5,-13,0,24/09/2020 16:10:29
-17,42,4,13,16,-19,-19,0,24/09/2020 16:10:29
115,43,43,38,-8,10,-32,0,24/09/2020 16:10:29
9,0,-1,-21,-48,-41,-34,0,24/09/2020 16:10:29
-81,-20,-67,9,34,0,-51,0,24/09/2020 16:10:29
-70,-2,-6,6,-49,14,12,0,24/09/2020 16:10:29
-48,-3,20,-43,-33,-14,31,0,24/09/2020 16:10:29
34,-13,-22,-39,36,-3,-29,0,24/09/2020 16:10:30
-34,-14,-21,-19,-15,0,-36,0,24/09/2020 16:10:30
17,-42,-13,-16,38,-6,-33,0,24/09/2020 16:10:30
10,29,81,4,2,24,42,0,24/09/2020 16:10:30
-5,0,-6,0,13,-10,-9,0,24/09/2020 16:10:30
-21,-16,-34,1,10,-4,18,0,24/09/2020 16:10:30
46,74,7,0,-10,-3,-56,0,24/09/2020 16:10:30
-25,-23,-17,-1,-34,-25,17,0,24/09/2020 16:10:30
-20,-49,-13,10,30,-10,11,0,24/09/2020 16:10:30
-22,-30,5,-2,14,-24,-23,0,24/09/2020 16:10:31
-6,3,-39,1,6,106,4,0,24/09/2020 16:10:31
-45,85,37,-1,61,46,82,0,24/09/2020 16:10:31
-28,-72,-23,9,-17,-14,10,0,24/09/2020 16:10:31
24,-57,10,-5,-24,1,-22,0,24/09/2020 16:10:31
6,14,-6,-7,-40,6,-6,0,24/09/2020 16:10:31
-14,50,-65,0,-8,5,1,0,24/09/2020 16:10:32
0,-20,-8,-3,13,4,-4,0,24/09/2020 16:10:32
-11,-14,-6,0,0,-1,1,0,24/09/2020 16:10:32
0,6,-1,-2,-6,-3,0,0,24/09/2020 16:10:32
2,-5,-3,-1,1,1,0,0,24/09/2020 16:10:32
2,2,-3,-2,6,-1,-10,0,24/09/2020 16:10:32
-11,-4,-27,-3,-7,-60,-6,0,24/09/2020 16:10:32
-8,-8,-12,-1,-2,-2,0,0,24/09/2020 16:10:32
-13,-8,-7,-3,-1,0,-9,0,24/09/2020 16:10:32
-1,0,-2,2,8,2,-1,0,24/09/2020 16:10:33
-3,-3,-5,4,1,-2,-7,0,24/09/2020 16:10:33
1,1,-1,0,4,2,-14,0,24/09/2020 16:10:33
4,-1,-1,1,14,7,1,0,24/09/2020 16:10:33
3,-4,-4,-3,-10,7,4,0,24/09/2020 16:10:33
-4,-2,24,-10,-4,-26,-1,0,24/09/2020 16:10:33
3,3,6,-5,-8,-8,2,0,24/09/2020 16:10:34
-1,11,70,7,4,5,4,0,24/09/2020 16:10:34
3,13,-3,15,22,11,14,0,24/09/2020 16:10:34
-7,5,18,7,7,14,0,0,24/09/2020 16:10:34
-6,-7,-14,-9,-12,-3,-8,0,24/09/2020 16:10:34
2,5,22,-10,-2,-5,-5,0,24/09/2020 16:10:34
-11,-7,3,1,-1,-3,-5,0,24/09/2020 16:10:34
4,13,10,4,3,1,1,0,24/09/2020 16:10:34
-6,-31,-37,-11,-5,-4,-3,0,24/09/2020 16:10:35
-3,6,21,-20,-5,0,0,0,24/09/2020 16:10:35
0,2,17,-5,-1,-3,0,0,24/09/2020 16:10:35
0,5,6,2,0,-1,-1,0,24/09/2020 16:10:35
-2,-8,-5,-11,0,-1,-5,0,24/09/2020 16:10:35
-2,-11,-12,-22,-2,-1,1,0,24/09/2020 16:10:35
2,0,3,18,3,2,1,0,24/09/2020 16:10:35
0,0,9,11,1,0,-2,0,24/09/2020 16:10:35
-5,-6,-4,-3,-10,1,0,0,24/09/2020 16:10:35
1,-2,0,14,1,3,-1,0,24/09/2020 16:10:36
-1,-2,-17,-4,2,-1,0,0,24/09/2020 16:10:36
3,3,11,2,1,1,2,0,24/09/2020 16:10:36
0,1,8,8,2,0,1,0,24/09/2020 16:10:36
-13,-65,-96,-34,-10,-6,-5,0,24/09/2020 16:10:36
-8,-3,22,2,3,5,5,0,24/09/2020 16:10:36
1,7,0,0,-4,-4,-2,0,24/09/2020 16:10:37
-3,-2,-4,-28,-30,-7,1,0,24/09/2020 16:10:37
4,-58,-15,26,44,23,14,0,24/09/2020 16:10:37
-46,-21,6,22,-19,3,4,0,24/09/2020 16:10:37
71,43,40,-48,-26,-46,14,0,24/09/2020 16:10:37
29,25,14,5,35,18,15,0,24/09/2020 16:10:37
4,23,-72,-22,-24,33,-1,0,24/09/2020 16:10:37
-20,8,-16,-33,-41,0,-12,0,24/09/2020 16:10:37
-33,-46,-20,-64,-17,17,26,0,24/09/2020 16:10:37
-18,-92,-26,-12,-78,-43,-25,0,24/09/2020 16:10:37
-20,47,-12,-5,-1,-15,-19,0,24/09/2020 16:10:38
24,64,4,2,25,8,9,0,24/09/2020 16:10:38
39,88,-17,-15,20,28,-8,0,24/09/2020 16:10:38
14,39,-1,-25,-22,-3,0,0,24/09/2020 16:10:38
-4,-9,-8,-21,42,-1,-14,0,24/09/2020 16:10:38
5,22,-6,7,-5,-15,-9,0,24/09/2020 16:10:38
4,1,-10,22,-31,-8,0,0,24/09/2020 16:10:39
-1,0,-1,-6,-9,2,-16,0,24/09/2020 16:10:39
1,18,27,-10,1,-18,-3,0,24/09/2020 16:10:39
-1,12,6,4,-13,-7,-7,0,24/09/2020 16:10:39
1,2,6,22,0,0,1,0,24/09/2020 16:10:39
17,3,-5,5,-3,-1,0,0,24/09/2020 16:10:39
-26,-2,2,27,-8,1,0,0,24/09/2020 16:10:39
-57,-24,1,-3,14,-5,-5,0,24/09/2020 16:10:39
-69,-21,21,-35,33,-6,-6,0,24/09/2020 16:10:39
-21,-6,-4,-1,-46,1,5,0,24/09/2020 16:10:39
2,-7,-11,-9,-46,-22,-19,0,24/09/2020 16:10:40
-53,-28,-6,5,-9,2,0,0,24/09/2020 16:10:40
20,29,14,-8,-10,13,-8,0,24/09/2020 16:10:40
-26,-60,19,-18,-39,-24,-3,0,24/09/2020 16:10:40
-86,7,-30,28,-16,-19,-42,0,24/09/2020 16:10:40
33,0,-1,21,-11,-1,24,0,24/09/2020 16:10:40
-91,-71,-6,38,26,-20,-38,0,24/09/2020 16:10:41
7,40,-33,-82,-92,-8,-2,0,24/09/2020 16:10:41
9,11,25,-12,-1,1,9,0,24/09/2020 16:10:41
-4,-8,-58,-39,19,6,8,0,24/09/2020 16:10:41
0,-16,-6,0,-13,-7,41,0,24/09/2020 16:10:41
5,-4,-5,7,-20,1,1,0,24/09/2020 16:10:41
-6,-16,-22,-2,4,3,-11,0,24/09/2020 16:10:41
-2,2,6,-4,1,-2,-8,0,24/09/2020 16:10:42
4,8,5,-5,-3,-2,-9,0,24/09/2020 16:10:42
-1,4,-11,-11,4,0,5,0,24/09/2020 16:10:42
-3,1,7,18,-2,-3,0,0,24/09/2020 16:10:42
-3,5,3,-6,3,-2,1,0,24/09/2020 16:10:42
0,0,0,0,0,0,0,0,24/09/2020 16:11:53
-2,2,7,-1,-2,-2,-2,0,24/09/2020 16:11:53
2,4,0,-3,0,2,-1,0,24/09/2020 16:11:54
-1,3,5,-1,-1,-1,-1,0,24/09/2020 16:11:54
1,-13,-18,-5,-2,0,0,0,24/09/2020 16:11:54
-1,-9,-10,-5,-1,-2,1,0,24/09/2020 16:11:54
-1,-13,-30,-4,-1,1,1,0,24/09/2020 16:11:54
-1,-10,-24,-4,0,0,1,0,24/09/2020 16:11:55
-1,4,20,4,-1,-1,0,0,24/09/2020 16:11:55
1,9,4,3,0,0,2,0,24/09/2020 16:11:55
-2,1,3,-1,0,-1,-2,0,24/09/2020 16:11:55
0,-5,-12,-3,0,0,0,0,24/09/2020 16:11:55
-21,-22,15,6,-4,1,-1,0,24/09/2020 16:11:55
10,86,17,17,59,38,-7,0,24/09/2020 16:11:55
-24,-27,-6,-29,-19,-27,-37,0,24/09/2020 16:11:56
13,-3,-17,-50,-34,-11,-7,0,24/09/2020 16:11:56
5,-10,-17,1,-25,34,12,0,24/09/2020 16:11:56
12,11,4,-2,-6,58,36,0,24/09/2020 16:11:56
-10,-51,10,35,-21,-2,-15,0,24/09/2020 16:11:56
-21,-103,-27,1,25,9,-14,0,24/09/2020 16:11:56
-4,8,8,2,1,0,3,0,24/09/2020 16:11:56
-6,8,27,5,9,5,2,0,24/09/2020 16:11:56
7,-9,-29,-24,46,86,-6,0,24/09/2020 16:11:56
-4,1,-4,-8,-8,-13,1,0,24/09/2020 16:11:57
-12,-10,-5,2,3,-6,-4,0,24/09/2020 16:11:57
-5,6,-2,1,-3,-3,0,0,24/09/2020 16:11:57
-75,-41,-2,-15,-11,-5,-8,0,24/09/2020 16:11:57
98,117,70,32,33,38,30,0,24/09/2020 16:11:57
-128,69,-18,-43,-85,-11,-85,0,24/09/2020 16:11:57
-17,-9,-19,-25,3,17,-70,0,24/09/2020 16:11:57
-2,-3,-25,-19,-8,-38,-11,0,24/09/2020 16:11:57
-26,3,22,27,30,16,4,0,24/09/2020 16:11:57
-104,4,8,-21,-18,-42,-58,0,24/09/2020 16:11:57
25,24,27,12,18,4,11,0,24/09/2020 16:11:58
25,0,5,-9,-19,21,0,0,24/09/2020 16:11:58
-122,-58,11,37,-9,-24,-39,0,24/09/2020 16:11:58
-16,50,5,6,-9,-2,21,0,24/09/2020 16:11:58
-16,51,4,-12,-50,-38,-22,0,24/09/2020 16:11:58
17,34,17,1,-66,-15,44,0,24/09/2020 16:11:58
53,-17,-8,-7,-60,-56,-38,0,24/09/2020 16:11:58
-15,21,2,-7,9,-17,-22,0,24/09/2020 16:11:58
-94,-58,25,9,6,-34,-13,0,24/09/2020 16:11:59
2,-20,16,-11,-4,31,-23,0,24/09/2020 16:11:59
9,13,25,19,3,-36,15,0,24/09/2020 16:11:59
-12,-42,-17,-14,-23,-10,-13,0,24/09/2020 16:11:59
-10,-19,1,-9,4,-5,11,0,24/09/2020 16:11:59
-6,1,-3,-9,-1,7,4,0,24/09/2020 16:11:59
4,-2,-5,12,19,12,-5,0,24/09/2020 16:11:59
-1,0,4,-2,14,4,5,0,24/09/2020 16:11:59
-4,-5,-3,-5,1,-3,-2,0,24/09/2020 16:11:59
2,1,5,-2,-1,1,-1,0,24/09/2020 16:11:59
-3,-2,-3,-1,0,1,5,0,24/09/2020 16:12:00
8,4,-2,1,-3,-1,7,0,24/09/2020 16:12:00
0,-1,5,0,-2,0,-6,0,24/09/2020 16:12:00
2,1,1,-1,0,-1,-4,0,24/09/2020 16:12:00
16,-1,-1,4,1,0,-1,0,24/09/2020 16:12:00
-25,1,1,2,8,-1,-4,0,24/09/2020 16:12:00
32,-67,10,-20,29,-24,51,0,24/09/2020 16:12:01
43,11,28,59,71,21,29,0,24/09/2020 16:12:01
-87,28,3,7,36,0,-44,0,24/09/2020 16:12:01
-9,-54,6,-48,-25,35,74,0,24/09/2020 16:12:01
-93,-11,50,8,-3,6,-23,0,24/09/2020 16:12:01
-109,16,-25,-19,-12,21,44,0,24/09/2020 16:12:01
-40,49,22,11,-14,-25,-16,0,24/09/2020 16:12:01
12,45,19,6,19,50,41,0,24/09/2020 16:12:01
-16,14,23,-5,-20,-27,24,0,24/09/2020 16:12:01
-31,-11,31,36,46,30,43,0,24/09/2020 16:12:01
31,28,15,-16,-32,-45,-9,0,24/09/2020 16:12:02
48,32,-19,-1,12,8,56,0,24/09/2020 16:12:02
41,32,23,6,-26,-8,21,0,24/09/2020 16:12:02
-71,-45,-5,6,18,17,10,0,24/09/2020 16:12:02
5,7,3,3,7,4,21,0,24/09/2020 16:12:02
-128,4,-27,-5,-10,-33,-39,0,24/09/2020 16:12:02
21,65,27,22,14,28,-2,0,24/09/2020 16:12:03
-13,-48,-38,-60,-15,1,24,0,24/09/2020 16:12:03
-9,26,-4,-39,-42,-10,1,0,24/09/2020 16:12:03
-14,-14,-9,-1,-4,-8,-11,0,24/09/2020 16:12:03
-7,-9,12,-3,9,22,2,0,24/09/2020 16:12:03
4,1,-13,-3,-3,5,-4,0,24/09/2020 16:12:03
-8,-12,-34,-12,-8,-15,-3,0,24/09/2020 16:12:03
5,3,20,4,-1,8,1,0,24/09/2020 16:12:03
-9,-4,-1,8,4,1,-3,0,24/09/2020 16:12:03
7,1,-1,-4,-11,3,4,0,24/09/2020 16:12:04
-2,-2,2,-4,-1,1,1,0,24/09/2020 16:12:04
-10,-6,2,1,-4,-2,-2,0,24/09/2020 16:12:04
-4,-4,-1,0,-3,-1,13,0,24/09/2020 16:12:04
-6,-4,-4,-5,0,-3,-6,0,24/09/2020 16:12:04
2,1,2,2,0,-1,-1,0,24/09/2020 16:12:04
-7,-3,-2,1,-1,0,-3,0,24/09/2020 16:12:04
12,4,6,-2,6,-4,4,0,24/09/2020 16:12:04
-3,6,14,-27,-8,-33,-32,0,24/09/2020 16:12:05
24,47,-14,-16,-6,28,13,0,24/09/2020 16:12:05
-34,-53,-20,-7,-77,-1,8,0,24/09/2020 16:12:05
16,51,45,-67,-37,27,46,0,24/09/2020 16:12:05
28,44,20,26,-32,-23,41,0,24/09/2020 16:12:05
35,11,10,6,-10,-5,-24,0,24/09/2020 16:12:05
-10,-66,6,0,-19,-19,-22,0,24/09/2020 16:12:05
-111,-12,-5,-7,-4,7,70,0,24/09/2020 16:12:06
12,-68,10,3,-24,4,10,0,24/09/2020 16:12:06
-72,-54,8,-9,17,39,2,0,24/09/2020 16:12:06
-26,48,17,2,-3,12,27,0,24/09/2020 16:12:06
-45,-40,-16,6,1,15,-11,0,24/09/2020 16:12:06
40,23,3,3,11,45,26,0,24/09/2020 16:12:06
-4,-16,-34,-6,1,7,18,0,24/09/2020 16:12:06
6,0,12,3,2,-16,-10,0,24/09/2020 16:12:06
-4,0,-4,2,0,-12,-7,0,24/09/2020 16:12:06
-4,-1,-3,-9,-11,1,2,0,24/09/2020 16:12:06
-12,-10,23,-3,-13,-5,2,0,24/09/2020 16:12:07
105,21,17,-32,16,24,111,0,24/09/2020 16:12:07
76,23,-88,-107,19,33,47,0,24/09/2020 16:12:07
98,34,50,-1,5,19,-4,0,24/09/2020 16:12:07
46,89,78,-54,-4,-21,-63,0,24/09/2020 16:12:07
-97,-20,9,19,5,-16,6,0,24/09/2020 16:12:08
68,32,38,39,13,7,55,0,24/09/2020 16:12:08
-26,-77,18,-18,-2,13,-11,0,24/09/2020 16:12:08
3,73,-42,-92,-5,-18,14,0,24/09/2020 16:12:08
41,-22,-27,78,17,-8,3,0,24/09/2020 16:12:08
-19,-40,-35,-24,83,38,-43,0,24/09/2020 16:12:08
-25,13,-8,22,-37,-8,27,0,24/09/2020 16:12:08
-91,14,15,-12,16,47,-12,0,24/09/2020 16:12:08
-77,-5,-5,-2,6,5,2,0,24/09/2020 16:12:08
-39,-18,-19,-5,47,0,-16,0,24/09/2020 16:12:09
10,2,1,-50,-10,2,12,0,24/09/2020 16:12:09
-2,3,9,12,-4,-3,-3,0,24/09/2020 16:12:09
0,0,-52,2,-1,1,0,0,24/09/2020 16:12:09
6,29,75,25,-3,4,3,0,24/09/2020 16:12:09
-2,-19,-27,-5,-5,-3,-2,0,24/09/2020 16:12:09
-3,-13,-5,1,-1,-3,-3,0,24/09/2020 16:12:10
2,3,15,5,0,1,1,0,24/09/2020 16:12:10
-4,-10,-11,-5,-3,0,-2,0,24/09/2020 16:12:10
-1,-4,8,-8,-2,0,0,0,24/09/2020 16:12:10
5,-12,-78,-20,8,-4,7,0,24/09/2020 16:12:10
0,12,10,7,-1,1,1,0,24/09/2020 16:12:10
1,-2,-4,6,-2,2,2,0,24/09/2020 16:12:10
0,0,0,0,0,0,0,0,24/09/2020 16:12:41
-7,-5,3,-1,-1,-1,-2,0,24/09/2020 16:12:42
-6,-7,-5,0,0,-2,-3,0,24/09/2020 16:12:43
6,18,0,-2,-4,-3,2,0,24/09/2020 16:12:43
-9,-5,2,-4,-8,-4,-2,0,24/09/2020 16:12:43
-15,-38,2,2,4,0,-4,0,24/09/2020 16:12:43
2,24,2,0,-2,-1,-1,0,24/09/2020 16:12:43
6,1,-5,0,-2,0,0,0,24/09/2020 16:12:43
1,13,2,2,0,0,0,0,24/09/2020 16:12:43
-3,1,4,0,0,0,1,0,24/09/2020 16:12:43
2,0,2,-3,-5,0,-1,0,24/09/2020 16:12:44
0,-1,0,-1,-1,-2,-1,0,24/09/2020 16:12:44
-6,-21,2,-3,1,-1,-1,0,24/09/2020 16:12:44
-1,-1,1,0,-1,0,0,0,24/09/2020 16:12:44
3,-5,4,1,1,0,0,0,24/09/2020 16:12:44
-3,15,0,-2,-2,-2,-2,0,24/09/2020 16:12:44
-3,10,2,0,0,-1,0,0,24/09/2020 16:12:45
0,2,1,-2,0,0,2,0,24/09/2020 16:12:45
3,8,-1,-1,-2,-1,0,0,24/09/2020 16:12:45
9,45,3,-1,0,0,2,0,24/09/2020 16:12:45
-6,-20,-1,-3,-1,0,-1,0,24/09/2020 16:12:45
-3,-3,1,1,1,0,0,0,24/09/2020 16:12:45
-3,-12,-3,-1,-3,-1,-1,0,24/09/2020 16:12:45
-5,16,8,0,-2,-2,-1,0,24/09/2020 16:12:45
-2,10,4,3,0,1,-1,0,24/09/2020 16:12:45
-1,-10,-8,-1,0,-1,0,0,24/09/2020 16:12:46
-6,-2,1,-3,-2,-1,-2,0,24/09/2020 16:12:46
6,2,-6,-2,1,0,0,0,24/09/2020 16:12:46
5,5,-5,-2,0,0,0,0,24/09/2020 16:12:46
-3,4,0,-3,-2,-1,-1,0,24/09/2020 16:12:46
6,22,6,-1,1,-1,0,0,24/09/2020 16:12:46
-5,3,-4,-3,-4,1,-1,0,24/09/2020 16:12:46
5,-1,-5,0,0,0,0,0,24/09/2020 16:12:47
2,-16,0,2,0,1,1,0,24/09/2020 16:12:47
-1,-9,0,0,-1,0,-2,0,24/09/2020 16:12:47
3,12,2,0,-3,-2,1,0,24/09/2020 16:12:47
0,8,0,-1,4,0,0,0,24/09/2020 16:12:47
7,10,-2,0,-2,-1,0,0,24/09/2020 16:12:47
1,-2,-1,0,-1,1,0,0,24/09/2020 16:12:47
-11,-39,-6,1,1,1,2,0,24/09/2020 16:12:47
-7,-29,-14,17,21,1,-1,0,24/09/2020 16:12:48
3,13,1,7,-1,-1,-1,0,24/09/2020 16:12:48
-9,-29,-10,1,10,-1,-2,0,24/09/2020 16:12:48
0,13,0,0,-1,-2,-1,0,24/09/2020 16:12:48
2,3,2,4,10,-2,0,0,24/09/2020 16:12:48
-2,-13,2,3,-6,-2,-3,0,24/09/2020 16:12:48
3,7,-4,-7,-1,2,-2,0,24/09/2020 16:12:48
16,38,-2,-4,16,-4,-1,0,24/09/2020 16:12:48
0,15,-1,13,-29,-8,-3,0,24/09/2020 16:12:48
9,-10,-9,-5,-1,-5,-7,0,24/09/2020 16:12:49
-5,-13,-2,-18,-8,-16,-17,0,24/09/2020 16:12:49
-3,-27,-1,1,-5,-2,1,0,24/09/2020 16:12:49
5,21,3,-7,-9,-5,-5,0,24/09/2020 16:12:49
5,16,6,0,12,0,-2,0,24/09/2020 16:12:49
2,12,2,3,1,-2,0,0,24/09/2020 16:12:50
8,0,7,-7,-2,1,0,0,24/09/2020 16:12:50
-5,1,4,-4,-7,-12,-8,0,24/09/2020 16:12:50
1,-1,-22,10,14,-20,-4,0,24/09/2020 16:12:50
-1,-11,-57,-2,-15,-8,1,0,24/09/2020 16:12:50
0,0,1,-4,1,-1,-1,0,24/09/2020 16:12:50
1,4,14,9,0,-5,-1,0,24/09/2020 16:12:50
24,3,-1,1,-2,0,0,0,24/09/2020 16:12:51
34,-15,-16,-11,-11,-8,-2,0,24/09/2020 16:12:51
59,64,37,25,46,2,-20,0,24/09/2020 16:12:51
58,-35,-21,-30,-40,17,-52,0,24/09/2020 16:12:51
-70,-12,7,20,22,65,71,0,24/09/2020 16:12:51
-39,-60,-22,-18,-4,0,45,0,24/09/2020 16:12:51
-85,-43,-40,-3,41,-13,10,0,24/09/2020 16:12:51
64,44,-15,17,28,68,35,0,24/09/2020 16:12:52
76,-48,-11,1,-1,65,-29,0,24/09/2020 16:12:52
-128,-11,17,8,-27,-16,-7,0,24/09/2020 16:12:52
-27,-57,-4,-2,-31,10,2,0,24/09/2020 16:12:52
-93,-57,12,2,7,40,-6,0,24/09/2020 16:12:52
-60,29,3,-10,-3,-30,-12,0,24/09/2020 16:12:52
-25,-79,3,4,-19,-33,-22,0,24/09/2020 16:12:53
-27,59,53,7,43,-15,-76,0,24/09/2020 16:12:53
2,13,13,-3,11,-4,49,0,24/09/2020 16:12:53
-2,-35,-6,-13,-13,15,6,0,24/09/2020 16:12:53
-35,-23,12,16,11,-15,-38,0,24/09/2020 16:12:53
-26,-17,2,42,2,-74,-40,0,24/09/2020 16:12:53
28,95,45,16,26,27,9,0,24/09/2020 16:12:53
-79,-8,4,-40,-1,-7,43,0,24/09/2020 16:12:53
15,31,-29,-19,3,23,5,0,24/09/2020 16:12:54
-4,21,-15,-2,-3,29,-7,0,24/09/2020 16:12:54
-32,-20,19,54,21,8,-91,0,24/09/2020 16:12:54
11,9,32,5,7,-10,5,0,24/09/2020 16:12:54
1,-5,-30,-13,-8,-4,-3,0,24/09/2020 16:12:54
1,3,-10,15,1,-6,-3,0,24/09/2020 16:12:55
-3,-3,0,-1,6,12,3,0,24/09/2020 16:12:55
0,-5,-23,5,-2,1,0,0,24/09/2020 16:12:55
-2,1,-4,-9,-5,-7,2,0,24/09/2020 16:12:55
1,1,-4,10,7,2,-5,0,24/09/2020 16:12:55
2,-3,-22,8,-3,-8,-8,0,24/09/2020 16:12:55
-1,-5,-3,-6,-2,-1,-7,0,24/09/2020 16:12:55
-2,0,-3,1,1,3,-6,0,24/09/2020 16:12:56
-3,-2,2,5,0,1,-7,0,24/09/2020 16:12:56
0,-2,-3,2,-7,-7,-3,0,24/09/2020 16:12:56
-5,-3,2,-1,3,-5,-3,0,24/09/2020 16:12:56
-1,-1,-1,-10,-3,-2,1,0,24/09/2020 16:12:56
-27,-2,0,9,5,3,1,0,24/09/2020 16:12:56
87,-30,39,18,14,2,56,0,24/09/2020 16:12:56
15,0,-18,-43,-77,-59,2,0,24/09/2020 16:12:57
-38,-28,40,59,39,10,22,0,24/09/2020 16:12:57
-54,-10,-7,57,-20,-29,-16,0,24/09/2020 16:12:57
43,50,18,-74,10,-5,-29,0,24/09/2020 16:12:57
71,57,45,-36,45,46,18,0,24/09/2020 16:12:57
-88,-68,-20,17,28,-4,-16,0,24/09/2020 16:12:57
5,-46,-64,-37,-14,-27,-18,0,24/09/2020 16:12:58
-35,8,11,-43,34,8,4,0,24/09/2020 16:12:58
46,-35,-18,-10,-34,-27,-55,0,24/09/2020 16:12:58
-18,-64,23,-22,42,27,27,0,24/09/2020 16:12:58
-53,-14,6,-15,-9,-20,0,0,24/09/2020 16:12:58
1,3,-28,-6,-6,-2,-9,0,24/09/2020 16:12:58
-2,-11,-48,3,2,5,10,0,24/09/2020 16:12:58
4,1,5,-10,-3,-4,9,0,24/09/2020 16:12:58
1,9,23,4,-1,-2,1,0,24/09/2020 16:12:58
-7,0,6,1,0,0,-2,0,24/09/2020 16:12:59
-12,-11,-12,0,-3,-5,-8,0,24/09/2020 16:12:59
8,7,7,-2,8,1,-5,0,24/09/2020 16:12:59
-3,-5,-13,8,0,-2,-2,0,24/09/2020 16:12:59
-3,-5,-30,2,-14,-19,-6,0,24/09/2020 16:12:59
9,21,76,17,9,7,6,0,24/09/2020 16:13:00
5,5,5,1,3,-1,2,0,24/09/2020 16:13:00
-59,63,39,-41,11,33,36,0,24/09/2020 16:13:00
4,6,-10,0,-8,-40,2,0,24/09/2020 16:13:00
-54,-14,-2,20,8,-22,-6,0,24/09/2020 16:13:00
13,11,17,-5,4,12,13,0,24/09/2020 16:13:00
108,38,-3,-35,11,11,22,0,24/09/2020 16:13:00
-73,-30,-12,34,6,-2,-63,0,24/09/2020 16:13:00
-11,-25,-64,-11,-19,-2,9,0,24/09/2020 16:13:01
-12,8,55,43,-24,2,1,0,24/09/2020 16:13:01
113,18,-5,-23,-14,74,40,0,24/09/2020 16:13:01
63,-54,12,-11,-17,-36,-2,0,24/09/2020 16:13:01
-28,-14,51,0,1,15,-9,0,24/09/2020 16:13:01
-47,0,-43,-31,-11,-6,-61,0,24/09/2020 16:13:01
-36,-2,6,-15,32,42,9,0,24/09/2020 16:13:02
-8,4,37,46,1,-47,25,0,24/09/2020 16:13:02
-47,6,-8,-40,-5,-11,34,0,24/09/2020 16:13:02
26,6,7,3,2,13,8,0,24/09/2020 16:13:02
7,9,2,2,0,-1,-3,0,24/09/2020 16:13:02
2,1,1,24,-1,-4,-1,0,24/09/2020 16:13:02
0,0,-3,-4,1,-4,-3,0,24/09/2020 16:13:02
0,-1,-3,-9,-1,-2,-2,0,24/09/2020 16:13:02
6,1,-2,10,0,1,4,0,24/09/2020 16:13:03
-4,0,8,1,-12,-13,2,0,24/09/2020 16:13:03
1,2,-4,2,-5,-19,-3,0,24/09/2020 16:13:03
-4,-5,13,12,-7,-14,-5,0,24/09/2020 16:13:03
1,4,-13,-7,-6,-3,-4,0,24/09/2020 16:13:03
-1,1,3,-7,-5,-5,-16,0,24/09/2020 16:13:03
2,1,-7,-13,3,0,6,0,24/09/2020 16:13:03
-1,-2,-1,-25,-16,-3,-6,0,24/09/2020 16:13:04
-18,-23,-1,-2,6,7,4,0,24/09/2020 16:13:04
7,7,3,-4,-4,4,18,0,24/09/2020 16:13:04
2,7,-1,10,-2,0,3,0,24/09/2020 16:13:04
-6,-5,-15,-30,-8,-8,-4,0,24/09/2020 16:13:04
11,5,4,10,4,6,4,0,24/09/2020 16:13:04
-5,6,-6,-21,-8,-2,-5,0,24/09/2020 16:13:05
-8,-19,-10,-19,-3,-4,-15,0,24/09/2020 16:13:05
-5,-5,-7,-3,0,-1,2,0,24/09/2020 16:13:05
-32,-43,12,14,2,1,-8,0,24/09/2020 16:13:05
-3,-13,-4,0,-3,-8,-25,0,24/09/2020 16:13:05
-5,7,11,5,0,-3,3,0,24/09/2020 16:13:05
6,-7,6,11,-2,0,2,0,24/09/2020 16:13:05
-6,-15,-6,13,0,3,3,0,24/09/2020 16:13:05
-2,5,6,2,-3,-3,0,0,24/09/2020 16:13:06
-1,-2,1,2,0,-2,-2,0,24/09/2020 16:13:06
-32,-18,-11,-2,-5,-8,-10,0,24/09/2020 16:13:06
0,-3,0,1,-2,-2,-2,0,24/09/2020 16:13:06
0,-3,-2,-4,-1,-1,3,0,24/09/2020 16:13:06
3,2,1,3,0,0,1,0,24/09/2020 16:13:06
2,2,0,-2,-1,-1,7,0,24/09/2020 16:13:07
-2,1,-1,-2,-2,-3,-3,0,24/09/2020 16:13:07
0,-1,0,1,-2,-1,3,0,24/09/2020 16:13:07
-2,-2,-1,-2,-1,-2,-3,0,24/09/2020 16:13:07
-6,-4,-2,0,0,-2,-10,0,24/09/2020 16:13:07
0,0,0,-3,-1,-1,-1,0,24/09/2020 16:13:07
-3,-3,0,0,-1,-2,-7,0,24/09/2020 16:13:07
5,4,3,0,2,0,12,0,24/09/2020 16:13:07
-3,-2,0,-1,1,1,8,0,24/09/2020 16:13:08
2,0,-2,0,4,0,6,0,24/09/2020 16:13:08
14,5,-2,-1,-1,1,-1,0,24/09/2020 16:13:08
4,0,-3,0,-1,-1,2,0,24/09/2020 16:13:08
-10,-10,-8,-12,-9,-4,-4,0,24/09/2020 16:13:08
123,-4,-17,38,8,-33,-23,0,24/09/2020 16:13:08
-19,-72,15,53,110,5,34,0,24/09/2020 16:13:09
-127,-38,-6,-87,-43,24,39,0,24/09/2020 16:13:09
-78,-99,-41,42,117,24,-4,0,24/09/2020 16:13:09
-113,-81,-15,-36,-72,-3,-31,0,24/09/2020 16:13:09
-84,15,-54,31,-33,-45,-44,0,24/09/2020 16:13:09
-45,-70,-26,39,20,-29,-61,0,24/09/2020 16:13:09
20,-37,-29,-52,-54,4,0,0,24/09/2020 16:13:10
35,-37,-37,62,-28,0,-10,0,24/09/2020 16:13:10
104,-12,-26,3,94,16,1,0,24/09/2020 16:13:10
32,52,19,-78,35,17,-10,0,24/09/2020 16:13:10
107,111,-14,-20,35,13,-2,0,24/09/2020 16:13:10
-26,-48,18,-10,-108,-6,-20,0,24/09/2020 16:13:10
-12,-2,53,22,46,0,-11,0,24/09/2020 16:13:10
63,13,8,-72,55,7,40,0,24/09/2020 16:13:10
-120,19,103,-39,-24,32,34,0,24/09/2020 16:13:10
36,24,40,-24,-35,-17,-7,0,24/09/2020 16:13:11
2,88,-10,-37,15,29,39,0,24/09/2020 16:13:11
-13,3,3,-19,31,37,-5,0,24/09/2020 16:13:11
-2,-2,31,-3,-12,-20,12,0,24/09/2020 16:13:11
-1,2,12,-6,-18,-3,2,0,24/09/2020 16:13:11
-6,-31,-37,-8,4,-2,-1,0,24/09/2020 16:13:12
5,18,40,12,0,3,3,0,24/09/2020 16:13:12
-2,77,-28,-4,-3,-5,-5,0,24/09/2020 16:13:12
-3,15,30,5,0,0,-1,0,24/09/2020 16:13:12
3,-13,-33,5,1,1,2,0,24/09/2020 16:13:12
-1,-2,0,-6,-1,-2,0,0,24/09/2020 16:13:12
0,5,10,-4,-4,-3,-1,0,24/09/2020 16:13:12
-5,-2,-6,-3,-3,-7,-12,0,24/09/2020 16:13:12
0,-9,8,0,1,-1,1,0,24/09/2020 16:13:13
3,13,2,-10,-6,1,0,0,24/09/2020 16:13:13
2,3,-5,-1,0,1,2,0,24/09/2020 16:13:13
-4,-11,-11,-7,-3,-4,-7,0,24/09/2020 16:13:13
-3,-3,-15,-10,-5,-2,-3,0,24/09/2020 16:13:13
-5,7,25,1,-4,-3,-2,0,24/09/2020 16:13:14
4,13,16,25,18,-1,-3,0,24/09/2020 16:13:14
-2,-8,-2,12,5,0,3,0,24/09/2020 16:13:14
-2,7,60,1,-4,9,1,0,24/09/2020 16:13:14
1,3,-5,-3,2,-1,-1,0,24/09/2020 16:13:14
0,-6,-21,20,5,1,1,0,24/09/2020 16:13:14
2,-7,-31,2,-1,2,1,0,24/09/2020 16:13:14
0,-3,-12,-28,-6,-1,-4,0,24/09/2020 16:13:14
-5,-10,-19,-4,-3,-1,-2,0,24/09/2020 16:13:15
-1,0,-7,5,0,0,-2,0,24/09/2020 16:13:15
-4,2,17,-3,-10,-1,-1,0,24/09/2020 16:13:15
-2,-2,-10,-16,4,-1,-1,0,24/09/2020 16:13:15
-1,-3,2,13,2,-1,-1,0,24/09/2020 16:13:15
2,7,13,5,4,0,3,0,24/09/2020 16:13:15
-1,-3,-4,-27,-14,-1,0,0,24/09/2020 16:13:15
0,0,2,-12,-4,-3,1,0,24/09/2020 16:13:16
-2,-8,-6,9,-3,-1,-1,0,24/09/2020 16:13:16
0,1,-1,-5,-3,-1,0,0,24/09/2020 16:13:16
0,0,0,0,0,0,0,0,24/09/2020 16:14:37
0,1,8,3,0,-1,-1,0,24/09/2020 16:14:37
0,-1,-4,0,0,0,1,0,24/09/2020 16:14:38
-1,-6,-13,-8,-4,1,0,0,24/09/2020 16:14:38
-3,5,13,1,0,-1,0,0,24/09/2020 16:14:38
-1,3,-11,-2,-1,0,0,0,24/09/2020 16:14:39
-1,0,2,-2,0,-1,0,0,24/09/2020 16:14:39
0,6,-3,1,0,0,0,0,24/09/2020 16:14:39
0,6,4,2,0,-1,1,0,24/09/2020 16:14:39
2,-2,3,2,12,1,-1,0,24/09/2020 16:14:39
-3,-14,-25,-15,-1,-1,-1,0,24/09/2020 16:14:39
-4,-20,-39,2,-2,0,0,0,24/09/2020 16:14:40
4,9,-7,2,8,4,3,0,24/09/2020 16:14:40
4,7,12,2,5,-1,-1,0,24/09/2020 16:14:40
-1,-3,-13,1,5,3,-1,0,24/09/2020 16:14:40
4,-2,22,11,19,3,2,0,24/09/2020 16:14:40
-3,-3,-14,-40,-11,-3,-2,0,24/09/2020 16:14:40
-2,-31,-31,-2,7,-1,-1,0,24/09/2020 16:14:40
-2,6,-8,-2,5,2,0,0,24/09/2020 16:14:40
-4,-1,22,-3,-4,-2,-3,0,24/09/2020 16:14:40
-8,-1,20,3,0,-2,0,0,24/09/2020 16:14:41
6,32,35,4,1,-1,-1,0,24/09/2020 16:14:41
-4,-5,3,7,-4,0,-1,0,24/09/2020 16:14:41
2,10,2,10,4,0,1,0,24/09/2020 16:14:41
1,-2,1,-1,-4,-5,-1,0,24/09/2020 16:14:41
-3,-4,7,9,3,2,-1,0,24/09/2020 16:14:42
3,-4,9,2,1,2,2,0,24/09/2020 16:14:42
7,10,10,-4,-2,1,-1,0,24/09/2020 16:14:42
-3,-2,-6,-6,1,0,-3,0,24/09/2020 16:14:42
1,9,13,0,-2,-2,-2,0,24/09/2020 16:14:42
4,8,-3,-18,3,-1,1,0,24/09/2020 16:14:42
-1,-5,-5,-4,-9,-6,-3,0,24/09/2020 16:14:42
-4,-24,-37,6,-1,-1,1,0,24/09/2020 16:14:42
2,5,8,-17,1,-3,-3,0,24/09/2020 16:14:42
4,7,15,-1,7,1,-2,0,24/09/2020 16:14:43
-1,-27,-43,-7,-8,-1,-5,0,24/09/2020 16:14:43
-2,-21,-12,9,-9,-1,-1,0,24/09/2020 16:14:43
-2,-34,-21,-13,6,3,6,0,24/09/2020 16:14:43
-1,1,16,3,-3,-2,-2,0,24/09/2020 16:14:43
0,1,6,22,7,-3,2,0,24/09/2020 16:14:43
0,-1,-2,-1,-1,1,2,0,24/09/2020 16:14:43
-3,1,7,21,4,-1,-4,0,24/09/2020 16:14:43
1,1,-5,-21,-9,3,6,0,24/09/2020 16:14:44
0,-12,-15,-1,-3,-2,-2,0,24/09/2020 16:14:44
-1,2,13,13,4,-1,-2,0,24/09/2020 16:14:44
-1,-16,-43,-11,4,2,-2,0,24/09/2020 16:14:44
-1,-6,-2,-4,1,-2,-2,0,24/09/2020 16:14:44
-2,3,3,-5,-2,1,2,0,24/09/2020 16:14:44
-1,4,-1,-14,-6,-3,-1,0,24/09/2020 16:14:44
1,12,25,-4,-10,-7,-3,0,24/09/2020 16:14:45
2,-2,-11,6,9,9,19,0,24/09/2020 16:14:45
-3,13,15,-4,-3,-4,-3,0,24/09/2020 16:14:45
-1,-5,2,-12,2,1,5,0,24/09/2020 16:14:45
-3,-13,-8,11,7,2,-1,0,24/09/2020 16:14:45
3,10,8,-8,-5,-3,4,0,24/09/2020 16:14:45
0,6,2,-3,1,-6,0,0,24/09/2020 16:14:45
-1,-2,5,6,4,-2,-2,0,24/09/2020 16:14:45
2,23,16,-2,2,2,0,0,24/09/2020 16:14:46
-4,1,8,17,-3,2,-2,0,24/09/2020 16:14:46
-3,2,-12,-24,4,4,14,0,24/09/2020 16:14:46
-3,-2,-25,7,0,-4,-3,0,24/09/2020 16:14:46
2,10,7,2,6,-4,-4,0,24/09/2020 16:14:46
-4,-5,28,13,0,1,0,0,24/09/2020 16:14:47
-3,-5,-1,10,9,1,2,0,24/09/2020 16:14:47
1,-6,19,19,2,7,0,0,24/09/2020 16:14:47
-5,-24,-24,4,-3,-1,0,0,24/09/2020 16:14:47
-3,3,15,15,13,-5,1,0,24/09/2020 16:14:47
-3,-6,-5,-5,28,-2,-4,0,24/09/2020 16:14:47
-4,-11,-13,-7,-1,0,5,0,24/09/2020 16:14:47
1,0,16,19,-5,10,3,0,24/09/2020 16:14:47
0,-8,-17,-7,1,1,0,0,24/09/2020 16:14:48
1,-11,-30,-5,-1,-5,-13,0,24/09/2020 16:14:48
-1,0,4,-24,4,8,17,0,24/09/2020 16:14:48
-6,-18,0,-19,-13,-4,-5,0,24/09/2020 16:14:48
-2,9,11,8,-3,2,9,0,24/09/2020 16:14:48
-2,-12,4,6,-4,-4,-2,0,24/09/2020 16:14:48
-3,-7,-11,-13,-4,-14,-14,0,24/09/2020 16:14:49
3,7,-4,-11,-6,5,-7,0,24/09/2020 16:14:49
-1,3,2,-5,-1,-1,-6,0,24/09/2020 16:14:49
1,10,11,0,5,-1,-4,0,24/09/2020 16:14:49
1,-1,-12,-9,1,-10,-9,0,24/09/2020 16:14:49
3,6,10,-2,-3,0,-2,0,24/09/2020 16:14:49
-4,-6,1,-2,0,4,-9,0,24/09/2020 16:14:49
-2,-2,-3,-19,-3,4,5,0,24/09/2020 16:14:49
-1,-4,1,21,-4,-15,-12,0,24/09/2020 16:14:50
0,-9,-17,11,-1,-1,4,0,24/09/2020 16:14:50
-2,-4,-7,-11,7,-9,-17,0,24/09/2020 16:14:50
0,12,12,-4,-4,0,4,0,24/09/2020 16:14:50
0,-1,7,22,-1,-4,-5,0,24/09/2020 16:14:50
0,-5,-7,8,-2,16,26,0,24/09/2020 16:14:50
-2,7,27,1,0,0,-2,0,24/09/2020 16:14:50
-1,3,1,28,-12,-50,-17,0,24/09/2020 16:14:51
2,-14,-83,-39,9,12,1,0,24/09/2020 16:14:51
-2,5,10,-15,-8,20,8,0,24/09/2020 16:14:51
2,1,-13,-1,1,-4,-1,0,24/09/2020 16:14:51
-2,-1,1,-47,7,4,-5,0,24/09/2020 16:14:51
-6,-6,-14,4,10,-6,-1,0,24/09/2020 16:14:51
6,-1,-6,2,-4,-7,0,0,24/09/2020 16:14:52
-4,-2,17,5,5,7,-6,0,24/09/2020 16:14:52
3,-10,-23,-1,1,-4,1,0,24/09/2020 16:14:52
8,13,21,33,-8,3,18,0,24/09/2020 16:14:52
0,0,0,0,0,0,0,0,24/09/2020 16:16:59
-1,-3,-5,-15,-2,-2,-2,0,24/09/2020 16:16:59
0,-1,2,3,-4,0,1,0,24/09/2020 16:17:00
-1,-10,-7,7,3,1,-1,0,24/09/2020 16:17:00
-1,-13,-29,-6,-2,0,-1,0,24/09/2020 16:17:01
-3,-12,-20,-6,2,1,0,0,24/09/2020 16:17:01
1,-4,-7,4,6,0,0,0,24/09/2020 16:17:01
-3,-6,-1,0,-5,-2,-3,0,24/09/2020 16:17:01
0,4,3,-1,1,-2,1,0,24/09/2020 16:17:01
-1,-5,-3,1,2,-1,-1,0,24/09/2020 16:17:01
-2,-13,-9,6,2,0,-1,0,24/09/2020 16:17:02
0,1,11,11,2,-2,-2,0,24/09/2020 16:17:02
-3,1,7,3,-3,-3,-1,0,24/09/2020 16:17:02
-3,9,28,4,0,0,0,0,24/09/2020 16:17:02
-2,3,8,0,-4,-1,0,0,24/09/2020 16:17:02
-1,-1,-9,0,1,1,-2,0,24/09/2020 16:17:02
1,0,-3,0,-1,-1,1,0,24/09/2020 16:17:02
1,8,30,12,0,0,5,0,24/09/2020 16:17:02
0,3,1,-3,2,0,-1,0,24/09/2020 16:17:02
1,4,2,-1,-1,0,1,0,24/09/2020 16:17:03
1,6,-2,-2,1,0,3,0,24/09/2020 16:17:03
-1,-1,4,7,-3,0,-1,0,24/09/2020 16:17:03
1,5,7,3,3,-1,-1,0,24/09/2020 16:17:03
-2,0,-6,-2,-2,-2,-2,0,24/09/2020 16:17:03
2,7,20,7,-2,-2,1,0,24/09/2020 16:17:03
1,-7,-15,8,2,1,2,0,24/09/2020 16:17:04
-1,0,-6,-19,-8,-2,0,0,24/09/2020 16:17:04
-2,4,16,7,0,-1,-6,0,24/09/2020 16:17:04
-1,2,2,5,1,5,0,0,24/09/2020 16:17:04
-3,-2,3,-4,-5,-4,-4,0,24/09/2020 16:17:04
-1,0,8,1,2,1,-3,0,24/09/2020 16:17:04
0,4,9,3,0,-2,0,0,24/09/2020 16:17:04
-3,3,20,3,-2,-2,-7,0,24/09/2020 16:17:04
-2,-5,-2,5,1,2,2,0,24/09/2020 16:17:04
0,0,0,0,0,0,0,0,24/09/2020 16:18:12
-1,-14,-6,1,1,-1,0,0,24/09/2020 16:18:12
2,12,3,-1,-1,0,-2,0,24/09/2020 16:18:13
-1,8,-2,-3,-2,-2,-2,0,24/09/2020 16:18:13
-6,6,7,1,-2,-1,-2,0,24/09/2020 16:18:14
0,-15,-9,-2,-1,-1,-3,0,24/09/2020 16:18:14
1,1,-1,-2,-1,1,0,0,24/09/2020 16:18:14
-4,9,3,-1,-2,-2,-2,0,24/09/2020 16:18:14
-1,-5,-4,-3,-1,-2,1,0,24/09/2020 16:18:14
-2,8,4,-1,-2,0,0,0,24/09/2020 16:18:14
-2,-8,-3,-2,-1,1,-1,0,24/09/2020 16:18:14
3,-8,-2,0,-1,0,0,0,24/09/2020 16:18:14
-9,8,5,-3,-4,-3,-3,0,24/09/2020 16:18:15
5,-17,-6,1,1,0,1,0,24/09/2020 16:18:15
3,-3,-6,-2,1,-1,0,0,24/09/2020 16:18:15
3,8,-1,-1,-2,-1,0,0,24/09/2020 16:18:15
6,-4,-3,1,1,0,0,0,24/09/2020 16:18:15
-4,-10,0,0,1,0,2,0,24/09/2020 16:18:15
1,-4,-4,-2,-1,-1,-1,0,24/09/2020 16:18:15
-1,6,1,-4,-1,0,-1,0,24/09/2020 16:18:16
-3,-22,-1,0,5,1,-2,0,24/09/2020 16:18:16
1,14,3,0,10,6,0,0,24/09/2020 16:18:16
-24,-57,-11,1,8,-7,-6,0,24/09/2020 16:18:16
7,29,10,1,20,2,-1,0,24/09/2020 16:18:16
-1,-12,-7,-5,-2,2,-1,0,24/09/2020 16:18:16
6,28,-6,-5,-21,-3,-3,0,24/09/2020 16:18:17
-7,-16,8,-3,-30,-8,-2,0,24/09/2020 16:18:17
6,3,-2,-4,-2,2,0,0,24/09/2020 16:18:17
-21,-78,-1,8,67,4,0,0,24/09/2020 16:18:17
17,64,-3,-7,12,7,3,0,24/09/2020 16:18:17
-10,29,8,-2,-23,-7,-3,0,24/09/2020 16:18:17
-8,-17,-1,-3,-19,0,-1,0,24/09/2020 16:18:17
3,-8,-4,-3,-5,1,-2,0,24/09/2020 16:18:17
1,4,-14,-17,-26,-8,7,0,24/09/2020 16:18:18
-16,-31,-41,-18,-33,-15,-18,0,24/09/2020 16:18:18
-13,-100,-25,-6,-40,-15,0,0,24/09/2020 16:18:18
10,38,1,1,-2,-7,-11,0,24/09/2020 16:18:18
6,-35,-18,-14,-29,-6,-1,0,24/09/2020 16:18:18
0,26,4,1,-5,0,1,0,24/09/2020 16:18:19
-23,-18,43,12,11,3,0,0,24/09/2020 16:18:19
-2,-27,-11,1,17,-3,-3,0,24/09/2020 16:18:19
-1,39,17,-10,-7,-19,-10,0,24/09/2020 16:18:19
-2,-9,3,-4,-6,6,9,0,24/09/2020 16:18:19
-22,-48,-8,5,-9,-23,-27,0,24/09/2020 16:18:19
-10,-37,-8,-16,-19,-5,-10,0,24/09/2020 16:18:19
-32,2,7,3,-38,-11,-16,0,24/09/2020 16:18:19
-13,-26,10,3,-10,10,-10,0,24/09/2020 16:18:19
1,-60,-6,-4,-13,24,67,0,24/09/2020 16:18:20
-4,-28,-12,18,28,5,0,0,24/09/2020 16:18:20
-33,-45,8,-11,-25,42,-4,0,24/09/2020 16:18:20
40,90,-70,17,30,15,28,0,24/09/2020 16:18:20
5,34,2,-6,-32,20,19,0,24/09/2020 16:18:20
-45,-128,10,25,14,-9,-10,0,24/09/2020 16:18:21
7,46,-8,-2,0,8,-7,0,24/09/2020 16:18:21
26,-5,38,68,42,53,47,0,24/09/2020 16:18:21
1,5,15,-57,-117,-33,6,0,24/09/2020 16:18:21
20,69,-6,-3,-11,6,18,0,24/09/2020 16:18:21
31,5,-71,-62,-58,-14,6,0,24/09/2020 16:18:21
-19,104,-5,-53,3,-3,15,0,24/09/2020 16:18:22
-50,-128,-86,-32,-40,-28,12,0,24/09/2020 16:18:22
-97,106,36,-77,-22,-27,31,0,24/09/2020 16:18:22
70,-4,-8,-12,58,31,36,0,24/09/2020 16:18:22
-110,-17,1,-1,-34,-4,23,0,24/09/2020 16:18:22
25,-71,-60,-2,31,-7,48,0,24/09/2020 16:18:22
20,-123,-24,22,-97,-14,-14,0,24/09/2020 16:18:22
-86,3,5,-30,-44,21,60,0,24/09/2020 16:18:22
22,-13,15,-35,-16,5,-8,0,24/09/2020 16:18:23
-1,0,-3,-8,8,-5,-11,0,24/09/2020 16:18:23
-97,10,21,32,12,-5,4,0,24/09/2020 16:18:23
-97,-60,-7,-2,-9,13,18,0,24/09/2020 16:18:23
50,-1,-11,2,-3,11,-7,0,24/09/2020 16:18:24
-13,4,5,-2,-4,1,7,0,24/09/2020 16:18:24
-9,-23,1,11,-1,5,-4,0,24/09/2020 16:18:24
52,14,1,7,9,-3,5,0,24/09/2020 16:18:24
19,7,-7,-12,-6,-4,0,0,24/09/2020 16:18:24
-12,-28,-19,-12,0,-9,-7,0,24/09/2020 16:18:24
114,37,20,18,10,13,12,0,24/09/2020 16:18:24
127,-97,-2,3,-25,-6,8,0,24/09/2020 16:18:24
-94,-55,-14,39,-24,12,6,0,24/09/2020 16:18:25
-64,49,-3,9,103,-46,16,0,24/09/2020 16:18:25
-56,10,49,-21,-32,-39,-60,0,24/09/2020 16:18:25
-4,14,39,-14,-32,6,36,0,24/09/2020 16:18:25
-32,53,-58,-39,-56,10,47,0,24/09/2020 16:18:25
-104,-106,68,39,31,22,-69,0,24/09/2020 16:18:25
-69,-29,-9,20,-13,45,-21,0,24/09/2020 16:18:26
12,34,-26,-14,22,45,50,0,24/09/2020 16:18:26
16,14,2,13,16,15,22,0,24/09/2020 16:18:26
13,10,-5,-12,-4,-10,18,0,24/09/2020 16:18:26
9,3,-16,-15,9,18,5,0,24/09/2020 16:18:26
1,8,-13,-8,-7,-34,-4,0,24/09/2020 16:18:26
0,-34,-8,-12,9,3,-4,0,24/09/2020 16:18:26
3,-25,6,-3,3,-10,-2,0,24/09/2020 16:18:26
-1,0,4,5,10,5,0,0,24/09/2020 16:18:27
-31,-23,-10,-9,-11,-3,-9,0,24/09/2020 16:18:27
0,15,2,7,3,1,0,0,24/09/2020 16:18:27
-9,10,-4,2,7,-3,-6,0,24/09/2020 16:18:27
60,6,32,-86,13,3,0,0,24/09/2020 16:18:27
-87,-12,-35,-39,-6,-15,-32,0,24/09/2020 16:18:27
8,15,1,19,16,-33,57,0,24/09/2020 16:18:27
-44,-29,25,15,22,20,-7,0,24/09/2020 16:18:28
-23,30,-31,-69,-5,2,5,0,24/09/2020 16:18:28
2,-14,-7,17,25,-11,-14,0,24/09/2020 16:18:28
-25,-5,8,-41,-5,9,6,0,24/09/2020 16:18:28
23,37,-13,-14,0,-9,-30,0,24/09/2020 16:18:28
3,0,-3,23,11,15,1,0,24/09/2020 16:18:28
57,66,-12,-36,-4,-28,-2,0,24/09/2020 16:18:29
-15,13,11,32,26,4,31,0,24/09/2020 16:18:29
-11,-36,21,17,-42,0,-9,0,24/09/2020 16:18:29
-9,13,1,5,16,1,1,0,24/09/2020 16:18:29
13,14,11,-9,-33,-15,0,0,24/09/2020 16:18:29
-4,-12,-76,-7,-18,2,-2,0,24/09/2020 16:18:29
1,1,1,-14,-17,-3,3,0,24/09/2020 16:18:29
6,20,23,36,-19,27,33,0,24/09/2020 16:18:29
56,-48,16,4,3,-49,-63,0,24/09/2020 16:18:30
86,127,-8,-71,-64,-30,64,0,24/09/2020 16:18:30
-16,-62,-63,59,-95,-30,-26,0,24/09/2020 16:18:30
82,25,46,-74,-34,-27,31,0,24/09/2020 16:18:30
26,31,-30,84,19,10,16,0,24/09/2020 16:18:30
26,-8,-52,1,-54,-24,-19,0,24/09/2020 16:18:31
-109,-2,-10,46,5,63,-122,0,24/09/2020 16:18:31
-1,-21,33,-7,29,32,15,0,24/09/2020 16:18:31
-2,5,-11,1,12,-6,-4,0,24/09/2020 16:18:31
-5,-16,-41,-7,-5,-3,9,0,24/09/2020 16:18:31
10,11,8,5,-1,-1,-2,0,24/09/2020 16:18:31
2,4,49,4,0,-3,1,0,24/09/2020 16:18:31
-4,-30,-34,-7,2,1,5,0,24/09/2020 16:18:31
-3,30,41,9,21,5,3,0,24/09/2020 16:18:32
3,4,7,-30,-4,-3,2,0,24/09/2020 16:18:32
9,22,30,2,-4,3,2,0,24/09/2020 16:18:32
-15,6,-11,2,0,-2,-12,0,24/09/2020 16:18:32
-4,5,-1,-2,4,-2,-2,0,24/09/2020 16:18:32
17,72,14,-22,-7,0,-1,0,24/09/2020 16:18:33
2,22,27,-20,-5,0,1,0,24/09/2020 16:18:33
0,-3,2,-16,-7,-2,-1,0,24/09/2020 16:18:33
-1,11,16,-4,-2,-1,-1,0,24/09/2020 16:18:33
-3,-6,-18,11,7,4,1,0,24/09/2020 16:18:33
-5,1,-9,5,-5,-1,-1,0,24/09/2020 16:18:33
-7,-11,-13,2,-1,-2,-6,0,24/09/2020 16:18:33
-9,-9,-10,-4,10,0,2,0,24/09/2020 16:18:34
-1,-16,-26,4,0,4,9,0,24/09/2020 16:18:34
2,5,-2,-14,1,1,0,0,24/09/2020 16:18:34
0,-1,7,7,-5,0,-1,0,24/09/2020 16:18:34
-5,-7,19,6,0,-1,-2,0,24/09/2020 16:18:34
1,-2,-28,-5,5,-2,-2,0,24/09/2020 16:18:34
4,5,19,-2,13,1,-3,0,24/09/2020 16:18:34
-6,-8,0,-4,9,4,-8,0,24/09/2020 16:18:35
4,-3,-7,7,7,6,11,0,24/09/2020 16:18:35
0,-3,-13,0,-11,-4,2,0,24/09/2020 16:18:35
0,0,0,0,0,0,0,0,24/09/2020 16:29:54
-33,-67,-38,-31,10,6,9,0,24/09/2020 16:29:54
18,38,62,-36,-128,-128,-128,0,24/09/2020 16:29:55
-64,14,-37,-30,-7,-22,-48,0,24/09/2020 16:29:56
-36,32,16,15,11,-110,-113,0,24/09/2020 16:29:56
-13,7,2,-7,8,16,-90,0,24/09/2020 16:29:56
-12,-2,-16,-4,0,-4,-1,0,24/09/2020 16:29:56
0,7,20,12,13,6,-1,0,24/09/2020 16:29:57
1,0,23,-6,3,4,7,0,24/09/2020 16:29:57
-16,-1,2,-4,-33,-4,-10,0,24/09/2020 16:29:57
-4,4,6,-3,-14,-1,-21,0,24/09/2020 16:29:57
0,2,4,0,-6,1,-1,0,24/09/2020 16:29:57
-3,-1,-2,-2,-1,-3,-1,0,24/09/2020 16:29:58
0,-3,-2,-1,-1,-8,-2,0,24/09/2020 16:29:58
-2,-9,-14,-7,-1,-12,-3,0,24/09/2020 16:29:58
3,2,4,4,2,9,0,0,24/09/2020 16:29:58
-1,4,5,3,-2,2,3,0,24/09/2020 16:29:59
-2,0,-3,-5,-4,-9,1,0,24/09/2020 16:29:59
-4,-7,-9,-4,-4,-12,-2,0,24/09/2020 16:29:59
1,7,10,7,5,16,1,0,24/09/2020 16:29:59
-4,-8,-18,-7,-15,-23,-8,0,24/09/2020 16:29:59
-1,-11,-16,-11,-13,-24,-8,0,24/09/2020 16:29:59
-4,-11,-11,-5,-4,-9,-4,0,24/09/2020 16:29:59
0,4,7,3,4,9,2,0,24/09/2020 16:30:00
-1,-2,0,0,-2,-5,0,0,24/09/2020 16:30:00
1,0,-1,-2,-9,-3,-1,0,24/09/2020 16:30:00
-2,0,-7,-3,3,1,-2,0,24/09/2020 16:30:00
-4,-3,-5,-1,-5,0,1,0,24/09/2020 16:30:00
1,-5,-5,-6,-2,-11,-3,0,24/09/2020 16:30:01
4,-2,-3,-3,2,-4,-4,0,24/09/2020 16:30:01
-1,2,4,3,5,9,-1,0,24/09/2020 16:30:01
0,0,8,3,7,14,5,0,24/09/2020 16:30:01
1,5,9,3,6,12,1,0,24/09/2020 16:30:01
2,9,13,5,8,22,7,0,24/09/2020 16:30:02
1,9,11,5,8,15,5,0,24/09/2020 16:30:02
0,5,9,6,4,8,3,0,24/09/2020 16:30:02
-2,2,3,4,1,4,3,0,24/09/2020 16:30:02
-5,-4,0,0,0,-4,-4,0,24/09/2020 16:30:02
0,5,6,-1,1,2,0,0,24/09/2020 16:30:02
-3,0,-1,-2,0,0,2,0,24/09/2020 16:30:02
3,-3,-5,-1,-4,-3,-2,0,24/09/2020 16:30:03
-1,1,-1,-1,0,1,0,0,24/09/2020 16:30:03
0,13,12,23,-13,39,15,0,24/09/2020 16:30:03
-3,1,0,-3,1,-5,-1,0,24/09/2020 16:30:03
0,2,10,7,9,10,4,0,24/09/2020 16:30:04
-1,-9,-20,-12,-3,-19,-14,0,24/09/2020 16:30:04
-2,-13,-18,-12,1,-21,-10,0,24/09/2020 16:30:04
-1,-13,-12,-7,-1,-11,-9,0,24/09/2020 16:30:04
-3,-3,-4,0,3,-4,-12,0,24/09/2020 16:30:04
-2,-4,-3,-1,3,0,3,0,24/09/2020 16:30:04
1,-1,-1,0,-5,-2,-2,0,24/09/2020 16:30:05
1,5,4,-2,2,-38,-12,0,24/09/2020 16:30:05
0,-3,-9,-2,0,-7,-9,0,24/09/2020 16:30:05
2,5,-1,-5,-11,-14,0,0,24/09/2020 16:30:05
0,-9,-2,6,-15,-9,4,0,24/09/2020 16:30:05
5,-10,7,9,-10,-16,3,0,24/09/2020 16:30:05
0,-3,-8,-11,17,-16,-17,0,24/09/2020 16:30:06
-5,-5,6,-7,-3,-12,6,0,24/09/2020 16:30:06
5,-19,-9,-8,-5,-26,-13,0,24/09/2020 16:30:06
-4,9,2,6,6,6,4,0,24/09/2020 16:30:07
-2,-4,2,-1,-2,-4,-5,0,24/09/2020 16:30:07
-2,-3,0,-1,-5,-3,3,0,24/09/2020 16:30:07
-4,-4,-2,-2,-4,-12,-3,0,24/09/2020 16:30:07
0,0,0,-1,8,5,-6,0,24/09/2020 16:30:07
-1,33,6,-12,-19,-1,6,0,24/09/2020 16:30:07
-4,9,6,4,5,4,-9,0,24/09/2020 16:30:08
-4,9,10,7,-4,5,-4,0,24/09/2020 16:30:08
-4,6,10,10,-1,-14,10,0,24/09/2020 16:30:08
-7,-7,1,-5,35,-32,-23,0,24/09/2020 16:30:08
5,-8,-52,-40,-20,2,9,0,24/09/2020 16:30:08
38,5,41,44,127,106,-61,0,24/09/2020 16:30:08
1,-22,-24,-16,-14,-23,-21,0,24/09/2020 16:30:09
3,4,12,-1,-116,-3,-5,0,24/09/2020 16:30:09
-1,9,5,7,-120,-11,6,0,24/09/2020 16:30:09
-6,3,-13,-28,-7,6,9,0,24/09/2020 16:30:09
2,4,1,21,17,-12,4,0,24/09/2020 16:30:10
-3,0,8,20,0,-30,-6,0,24/09/2020 16:30:10
59,-15,56,-16,-2,16,-18,0,24/09/2020 16:30:10
-21,-47,-1,-4,12,-23,-22,0,24/09/2020 16:30:10
-4,1,0,-19,1,-6,-23,0,24/09/2020 16:30:10
-2,31,5,11,80,-112,73,0,24/09/2020 16:30:10
-16,-57,-4,-9,0,26,1,0,24/09/2020 16:30:10
-12,-16,127,9,-2,49,17,0,24/09/2020 16:30:11
44,127,41,65,2,68,27,0,24/09/2020 16:30:11
19,26,-19,-10,1,-36,-17,0,24/09/2020 16:30:11
-3,-63,-13,-16,-1,-93,-41,0,24/09/2020 16:30:11
-17,-48,-16,7,-1,-26,73,0,24/09/2020 16:30:12
15,55,20,11,3,26,9,0,24/09/2020 16:30:12
2,-1,4,-11,-1,0,3,0,24/09/2020 16:30:12
0,-2,-2,-1,16,-4,2,0,24/09/2020 16:30:12
-5,4,-10,-6,10,4,-5,0,24/09/2020 16:30:12
-10,-7,-7,10,-1,7,-17,0,24/09/2020 16:30:13
6,10,4,4,1,14,14,0,24/09/2020 16:30:13
-3,4,-1,1,-4,-4,5,0,24/09/2020 16:30:13
-4,-1,-5,-9,-7,-6,-5,0,24/09/2020 16:30:13
5,-1,2,6,4,5,3,0,24/09/2020 16:30:13
-7,-7,-10,-18,-3,-14,-12,0,24/09/2020 16:30:13
-5,11,9,13,3,8,4,0,24/09/2020 16:30:13
-13,-96,-14,3,-12,-28,-1,0,24/09/2020 16:30:14
-3,35,-9,13,-5,26,-51,0,24/09/2020 16:30:14
2,-2,-5,-12,-7,-22,-30,0,24/09/2020 16:30:14
3,-8,-2,1,1,35,-11,0,24/09/2020 16:30:15
-1,-8,-3,11,-1,-3,-3,0,24/09/2020 16:30:15
-1,-1,-8,-7,-4,-1,-1,0,24/09/2020 16:30:15
1,35,6,-10,-7,-25,-29,0,24/09/2020 16:30:15
0,-15,4,3,-13,-8,-13,0,24/09/2020 16:30:15
-4,15,7,12,0,10,-52,0,24/09/2020 16:30:15
-1,-3,0,23,2,-21,-16,0,24/09/2020 16:30:16
1,27,-1,5,-3,0,-40,0,24/09/2020 16:30:16
6,-14,-11,-4,7,4,7,0,24/09/2020 16:30:16
-5,0,-5,5,-10,-4,-13,0,24/09/2020 16:30:16
-4,-44,2,0,0,68,25,0,24/09/2020 16:30:16
-3,0,1,8,-1,-12,22,0,24/09/2020 16:30:16
-5,7,0,7,4,12,7,0,24/09/2020 16:30:17
-3,8,-4,-16,-5,-2,3,0,24/09/2020 16:30:17
-2,-12,-8,127,-2,-10,-10,0,24/09/2020 16:30:17
3,-3,-6,-5,0,-5,-2,0,24/09/2020 16:30:17
-7,0,5,3,0,4,3,0,24/09/2020 16:30:18
-1,5,2,0,11,-5,-1,0,24/09/2020 16:30:18
2,3,0,7,-1,10,8,0,24/09/2020 16:30:18
83,45,26,89,-10,63,-1,0,24/09/2020 16:30:18
20,-1,-14,-1,2,8,-10,0,24/09/2020 16:30:18
12,5,15,-1,-3,-7,-40,0,24/09/2020 16:30:18
0,10,-10,-11,-9,-8,-17,0,24/09/2020 16:30:19
7,19,2,0,16,8,3,0,24/09/2020 16:30:19
2,46,7,-1,-5,-2,8,0,24/09/2020 16:30:19
16,52,11,3,-11,-3,-1,0,24/09/2020 16:30:19
12,5,11,5,-1,-10,-18,0,24/09/2020 16:30:19
-5,-10,2,3,-13,0,-6,0,24/09/2020 16:30:20
0,-1,-5,-11,-12,-16,-6,0,24/09/2020 16:30:20
1,0,3,1,2,2,3,0,24/09/2020 16:30:20
-6,3,-2,-2,0,-7,-13,0,24/09/2020 16:30:20
-3,-26,-14,-5,-8,-8,1,0,24/09/2020 16:30:21
-1,4,2,1,1,-2,-9,0,24/09/2020 16:30:21
-5,-18,-4,-5,-9,-6,-6,0,24/09/2020 16:30:21
2,12,4,-6,-24,-3,9,0,24/09/2020 16:30:21
1,-6,-1,-5,-2,-2,1,0,24/09/2020 16:30:21
2,1,2,0,-1,-4,-6,0,24/09/2020 16:30:21
3,5,5,0,2,8,4,0,24/09/2020 16:30:22
-6,-15,-7,-4,-4,2,0,0,24/09/2020 16:30:22
5,0,-5,-9,38,22,2,0,24/09/2020 16:30:22
4,-1,-16,-9,8,17,6,0,24/09/2020 16:30:22
-3,-5,-9,-14,-1,-4,4,0,24/09/2020 16:30:22
0,-6,-1,-6,9,11,6,0,24/09/2020 16:30:23
3,12,21,9,-17,-23,-5,0,24/09/2020 16:30:23
-1,-6,5,4,-9,5,-20,0,24/09/2020 16:30:23
0,4,2,-3,-7,-8,-14,0,24/09/2020 16:30:23
-1,-3,-11,0,-3,2,7,0,24/09/2020 16:30:23
-3,2,-13,45,0,-7,-8,0,24/09/2020 16:30:23
0,-14,34,35,-24,-26,-11,0,24/09/2020 16:30:24
-8,-12,22,4,1,-5,-5,0,24/09/2020 16:30:24
4,12,-2,-2,2,24,-2,0,24/09/2020 16:30:24
0,-8,-2,-2,-1,-2,4,0,24/09/2020 16:30:24
1,-1,-5,-9,-6,-9,32,0,24/09/2020 16:30:24
-4,-3,-1,-1,0,2,2,0,24/09/2020 16:30:24
-4,1,-2,-5,-6,-1,5,0,24/09/2020 16:30:25
2,6,4,-1,-5,-6,0,0,24/09/2020 16:30:25
-1,-7,-2,0,12,15,4,0,24/09/2020 16:30:25
0,-13,-12,-5,6,-1,-12,0,24/09/2020 16:30:26
0,4,0,5,10,3,1,0,24/09/2020 16:30:26
-1,1,-6,-24,-10,7,2,0,24/09/2020 16:30:26
3,10,6,-1,2,11,4,0,24/09/2020 16:30:26
3,6,2,-3,-3,0,1,0,24/09/2020 16:30:26
1,-9,-4,0,2,0,0,0,24/09/2020 16:30:26
0,2,-4,1,-1,-2,-2,0,24/09/2020 16:30:26
8,12,7,1,-4,-2,3,0,24/09/2020 16:30:27
2,-13,-5,0,0,1,-7,0,24/09/2020 16:30:27
-3,7,1,1,-4,-4,-5,0,24/09/2020 16:30:27
-1,3,-1,-5,1,0,2,0,24/09/2020 16:30:27
0,-5,-4,0,-3,3,2,0,24/09/2020 16:30:28
-6,-4,-3,-3,-8,4,-3,0,24/09/2020 16:30:28
-19,19,3,3,2,17,-1,0,24/09/2020 16:30:28
-7,-85,-10,1,0,0,-20,0,24/09/2020 16:30:28
-17,-17,2,-10,1,-21,-2,0,24/09/2020 16:30:29
-4,-121,-31,-2,1,16,-14,0,24/09/2020 16:30:29
1,38,12,8,-2,-17,-2,0,24/09/2020 16:30:29
2,-64,-18,-5,1,19,-6,0,24/09/2020 16:30:29
7,75,36,-1,6,-39,-21,0,24/09/2020 16:30:29
-4,-57,-28,-7,-8,33,23,0,24/09/2020 16:30:29
2,68,60,27,-8,-10,16,0,24/09/2020 16:30:29
-52,-64,-85,3,29,57,21,0,24/09/2020 16:30:30
18,96,61,-26,-13,-24,-24,0,24/09/2020 16:30:30
-54,-84,-15,26,23,108,26,0,24/09/2020 16:30:30
8,84,17,-17,-2,-10,33,0,24/09/2020 16:30:30
-12,-99,-52,25,-7,4,-31,0,24/09/2020 16:30:31
5,30,32,2,1,-15,8,0,24/09/2020 16:30:31
-2,-94,-43,-23,-4,37,22,0,24/09/2020 16:30:31
17,79,30,8,-2,-16,-11,0,24/09/2020 16:30:31
19,72,4,-7,1,-30,-17,0,24/09/2020 16:30:31
4,32,19,-1,-4,-20,-5,0,24/09/2020 16:30:31
9,-18,5,28,0,15,-26,0,24/09/2020 16:30:31
-18,-32,21,19,-3,10,17,0,24/09/2020 16:30:32
-6,-34,-17,-10,-3,11,6,0,24/09/2020 16:30:32
40,127,43,4,4,-36,-25,0,24/09/2020 16:30:32
11,53,5,-1,-2,16,-7,0,24/09/2020 16:30:32
13,62,-9,-18,-4,-39,10,0,24/09/2020 16:30:32
-119,-128,-82,-104,-3,-88,-36,0,24/09/2020 16:30:32
-10,-26,-19,-25,1,4,4,0,24/09/2020 16:30:33
47,127,50,-58,-6,-91,-33,0,24/09/2020 16:30:33
-28,-128,-34,14,-1,40,18,0,24/09/2020 16:30:33
6,6,-8,-25,2,-10,-9,0,24/09/2020 16:30:33
25,40,27,-18,-6,-22,-8,0,24/09/2020 16:30:33
7,45,11,7,-1,15,-1,0,24/09/2020 16:30:34
26,80,37,24,-1,-7,4,0,24/09/2020 16:30:34
-1,7,0,-8,-1,-1,9,0,24/09/2020 16:30:34
-3,1,0,1,-2,26,31,0,24/09/2020 16:30:34
-4,-7,-6,-1,-8,-10,-2,0,24/09/2020 16:30:34
1,-2,4,4,2,-4,-19,0,24/09/2020 16:30:34
-1,-2,-3,0,0,-4,0,0,24/09/2020 16:30:34
0,2,-1,1,2,2,8,0,24/09/2020 16:30:35
-3,0,0,-3,0,0,2,0,24/09/2020 16:30:35
2,6,0,-2,-7,-1,-8,0,24/09/2020 16:30:35
2,-2,-1,0,10,11,1,0,24/09/2020 16:30:35
-1,-17,-5,1,-3,3,0,0,24/09/2020 16:30:35
6,19,8,3,2,-14,3,0,24/09/2020 16:30:36
19,29,14,18,-6,-15,3,0,24/09/2020 16:30:36
26,83,19,-8,73,-60,-17,0,24/09/2020 16:30:36
24,113,56,18,-3,-30,-11,0,24/09/2020 16:30:36
-26,-32,-4,10,0,8,6,0,24/09/2020 16:30:36
-25,-105,-15,6,-7,14,-9,0,24/09/2020 16:30:36
57,123,60,-18,-1,-55,-6,0,24/09/2020 16:30:37
-4,-1,16,-2,-5,42,3,0,24/09/2020 16:30:37
3,-51,-9,-22,0,28,3,0,24/09/2020 16:30:37
30,101,49,-12,-4,-88,-9,0,24/09/2020 16:30:37
19,80,15,-27,-3,-7,1,0,24/09/2020 16:30:37
11,8,2,4,-1,11,-14,0,24/09/2020 16:30:38
-5,18,15,17,-1,7,-4,0,24/09/2020 16:30:38
20,54,-4,6,5,-9,-28,0,24/09/2020 16:30:38
8,11,-1,3,0,-10,-4,0,24/09/2020 16:30:38
24,25,51,-16,-5,-62,-19,0,24/09/2020 16:30:38
-51,-51,2,14,-4,49,25,0,24/09/2020 16:30:38
-13,40,22,-4,1,-29,-25,0,24/09/2020 16:30:39
18,82,35,4,-1,-36,4,0,24/09/2020 16:30:39
8,28,18,-9,-2,8,2,0,24/09/2020 16:30:39
-5,0,12,6,3,-15,-6,0,24/09/2020 16:30:39
-1,-1,-1,2,-6,1,-1,0,24/09/2020 16:30:39
0,1,2,3,-4,-3,-1,0,24/09/2020 16:30:39
5,1,1,0,-5,10,3,0,24/09/2020 16:30:40
3,3,-1,2,-3,-3,-3,0,24/09/2020 16:30:40
-2,4,4,0,-7,-1,-2,0,24/09/2020 16:30:40
3,-1,0,-4,-1,-3,3,0,24/09/2020 16:30:40
-2,-8,-8,-15,4,-4,3,0,24/09/2020 16:30:40
0,-3,4,-8,6,2,-2,0,24/09/2020 16:30:41
-4,-2,-2,-15,-2,7,11,0,24/09/2020 16:30:41
2,4,0,-7,-5,4,1,0,24/09/2020 16:30:41
3,2,0,4,0,6,1,0,24/09/2020 16:30:41
-2,4,1,-6,1,2,-2,0,24/09/2020 16:30:41
1,2,-1,-10,-7,1,-2,0,24/09/2020 16:30:41
-5,-10,-3,2,2,5,3,0,24/09/2020 16:30:42
-3,-5,-3,-4,-4,0,3,0,24/09/2020 16:30:42
-1,0,0,-3,0,2,1,0,24/09/2020 16:30:42
0,-1,1,-1,-7,-2,2,0,24/09/2020 16:30:42
6,32,-4,-1,-6,-8,-8,0,24/09/2020 16:30:42
11,38,11,9,-8,5,1,0,24/09/2020 16:30:43
-4,13,24,-7,-16,-13,-9,0,24/09/2020 16:30:43
-20,-84,-26,-4,-5,4,7,0,24/09/2020 16:30:43
8,13,-10,-5,-12,-5,-6,0,24/09/2020 16:30:43
1,31,10,-5,-10,-10,1,0,24/09/2020 16:30:43
-3,-26,-33,-6,6,7,-2,0,24/09/2020 16:30:43
33,120,46,-7,-27,-28,-9,0,24/09/2020 16:30:43
-8,-1,5,-6,-1,10,10,0,24/09/2020 16:30:44
-5,-11,2,1,-3,-7,-12,0,24/09/2020 16:30:44
-1,-5,-11,-2,-4,1,0,0,24/09/2020 16:30:44
12,46,11,-4,-14,-14,-10,0,24/09/2020 16:30:44
0,26,7,-2,-9,-6,-1,0,24/09/2020 16:30:44
-4,15,-14,-14,-3,14,12,0,24/09/2020 16:30:44
9,21,-1,-9,-12,-6,1,0,24/09/2020 16:30:45
-1,-2,-2,1,3,10,11,0,24/09/2020 16:30:45
-3,0,3,5,-2,0,-12,0,24/09/2020 16:30:45
92,9,12,15,5,0,-14,0,24/09/2020 16:30:45
-116,-20,-3,6,-17,-18,-5,0,24/09/2020 16:30:45
-32,2,1,0,6,-3,-14,0,24/09/2020 16:30:46
-5,-5,-8,-7,-14,-11,2,0,24/09/2020 16:30:46
-4,-3,1,6,-2,-3,-4,0,24/09/2020 16:30:46
8,3,0,0,24,81,4,0,24/09/2020 16:30:46
-9,2,-6,-1,-8,-12,-14,0,24/09/2020 16:30:46
-4,-11,-4,3,-17,50,-10,0,24/09/2020 16:30:46
-128,-125,-128,91,78,123,92,0,24/09/2020 16:30:47
-8,-39,-23,14,17,14,16,0,24/09/2020 16:30:47
0,-4,0,-4,0,-1,-6,0,24/09/2020 16:30:47
4,9,5,3,3,-4,-2,0,24/09/2020 16:30:47
2,10,11,8,6,7,0,0,24/09/2020 16:30:47
0,-1,1,-4,7,8,-4,0,24/09/2020 16:30:48
-2,0,0,-6,-5,-9,-9,0,24/09/2020 16:30:48
3,7,7,2,-4,-11,-6,0,24/09/2020 16:30:48
-4,-16,-6,30,-11,-8,-8,0,24/09/2020 16:30:48
127,35,36,34,13,37,32,0,24/09/2020 16:30:48
-4,1,5,5,-19,19,11,0,24/09/2020 16:30:48
-24,-26,-26,-29,-30,-38,-29,0,24/09/2020 16:30:49
-23,-23,-26,-7,-40,-32,-24,0,24/09/2020 16:30:49
-3,-3,-3,-1,-8,5,6,0,24/09/2020 16:30:49
5,-13,-4,34,-9,-36,-128,0,24/09/2020 16:30:49
22,5,4,0,7,10,34,0,24/09/2020 16:30:49
1,-7,-3,9,-4,-6,-2,0,24/09/2020 16:30:50
-6,-4,1,9,-1,0,-3,0,24/09/2020 16:30:50
106,-7,-2,-6,-8,-9,-3,0,24/09/2020 16:30:50
-37,0,-1,11,5,7,8,0,24/09/2020 16:30:50
-5,-6,-3,3,-7,-5,-4,0,24/09/2020 16:30:50
9,3,8,7,3,1,5,0,24/09/2020 16:30:51
7,0,7,23,15,5,3,0,24/09/2020 16:30:51
13,11,21,26,18,15,5,0,24/09/2020 16:30:51
13,13,20,8,12,9,7,0,24/09/2020 16:30:51
17,23,15,9,17,16,6,0,24/09/2020 16:30:51
16,18,23,22,17,14,5,0,24/09/2020 16:30:51
17,25,21,10,-6,8,5,0,24/09/2020 16:30:51
7,13,12,-9,2,10,6,0,24/09/2020 16:30:52
2,-1,2,6,2,6,-2,0,24/09/2020 16:30:52
1,-1,1,6,5,0,0,0,24/09/2020 16:30:52
2,-5,-1,-3,-5,0,0,0,24/09/2020 16:30:52
