Raw EMG - Pod01,Raw EMG - Pod02,Raw EMG - Pod03,Raw EMG - Pod04,Raw EMG - Pod05,Raw EMG - Pod06,Raw EMG - Pod07,Raw EMG - Pod08,Timestamp
0,3,5,0,0,0,-1,1,2020-10-18 23:19:36.721
0,1,-6,4,-1,-1,-2,0,2020-10-18 23:19:36.736
3,9,18,12,4,2,2,4,2020-10-18 23:19:36.741
1,-2,3,-2,-1,-1,0,0,2020-10-18 23:19:36.745
1,-2,3,-2,-1,-1,0,0,2020-10-18 23:19:36.755
-4,2,15,-6,-5,-1,-1,-3,2020-10-18 23:19:36.762
-1,3,5,5,0,1,1,0,2020-10-18 23:19:36.769
-1,3,5,5,0,1,1,0,2020-10-18 23:19:36.777
-3,-10,-34,-8,-3,-3,-2,-3,2020-10-18 23:19:36.783
-3,-10,-34,-8,-3,-3,-2,-3,2020-10-18 23:19:36.789
2,0,-9,-1,-1,0,-1,1,2020-10-18 23:19:36.795
-1,2,12,-2,-1,-2,-2,-1,2020-10-18 23:19:36.803
2,5,-1,8,2,0,0,1,2020-10-18 23:19:36.810
2,5,-1,8,2,0,0,1,2020-10-18 23:19:36.816
1,-1,-5,2,1,0,2,0,2020-10-18 23:19:36.821
-1,2,20,-1,1,-2,0,-1,2020-10-18 23:19:36.827
-1,2,20,-1,1,-2,0,-1,2020-10-18 23:19:36.833
-1,2,20,-1,1,-2,0,-1,2020-10-18 23:19:36.839
-2,-3,1,-2,-2,-2,-3,-3,2020-10-18 23:19:36.846
1,0,-14,-2,-1,0,-1,-1,2020-10-18 23:19:36.852
-1,-2,-5,-6,-2,-1,-3,-2,2020-10-18 23:19:36.858
-1,-2,-5,-6,-2,-1,-3,-2,2020-10-18 23:19:36.869
2,5,8,0,0,-1,0,-1,2020-10-18 23:19:36.875
1,1,11,1,1,0,-1,0,2020-10-18 23:19:36.881
-1,1,10,0,-3,0,1,-1,2020-10-18 23:19:36.886
-1,1,10,0,-3,0,1,-1,2020-10-18 23:19:36.893
-1,1,10,0,-3,0,1,-1,2020-10-18 23:19:36.899
0,-2,5,-2,0,2,1,1,2020-10-18 23:19:36.905
-4,-8,-7,-4,-2,-2,-3,-2,2020-10-18 23:19:36.911
-5,-2,11,2,0,0,-5,-5,2020-10-18 23:19:36.916
-5,-2,11,2,0,0,-5,-5,2020-10-18 23:19:36.922
-5,-2,11,2,0,0,-5,-5,2020-10-18 23:19:36.927
1,0,-17,2,2,0,-1,0,2020-10-18 23:19:36.934
1,0,-8,5,2,0,1,4,2020-10-18 23:19:36.940
1,0,-8,5,2,0,1,4,2020-10-18 23:19:36.946
-1,2,34,-2,-3,-2,-2,0,2020-10-18 23:19:36.952
-1,2,34,-2,-3,-2,-2,0,2020-10-18 23:19:36.958
-1,2,34,-2,-3,-2,-2,0,2020-10-18 23:19:36.964
-1,2,34,-2,-3,-2,-2,0,2020-10-18 23:19:36.970
1,3,4,8,1,-1,-1,-3,2020-10-18 23:19:36.977
2,-5,-15,-7,-2,1,0,2,2020-10-18 23:19:36.983
2,-5,-15,-7,-2,1,0,2,2020-10-18 23:19:36.989
-4,-1,20,18,5,-3,1,-3,2020-10-18 23:19:36.995
-3,-12,-15,-5,-3,0,-3,-3,2020-10-18 23:19:37.000
2,-3,-50,-1,-2,2,0,1,2020-10-18 23:19:37.006
2,-3,-50,-1,-2,2,0,1,2020-10-18 23:19:37.012
2,-3,-50,-1,-2,2,0,1,2020-10-18 23:19:37.018
-3,-1,27,10,0,-3,7,-4,2020-10-18 23:19:37.024
-2,9,53,12,2,4,1,1,2020-10-18 23:19:37.030
-2,9,53,12,2,4,1,1,2020-10-18 23:19:37.035
-4,5,40,-6,-7,-3,-6,-3,2020-10-18 23:19:37.042
-4,5,40,-6,-7,-3,-6,-3,2020-10-18 23:19:37.047
4,7,26,0,1,6,21,20,2020-10-18 23:19:37.053
4,7,26,0,1,6,21,20,2020-10-18 23:19:37.059
8,6,10,6,-9,-7,0,8,2020-10-18 23:19:37.065
-4,-22,-71,-13,-1,-4,6,-9,2020-10-18 23:19:37.072
-4,-22,-71,-13,-1,-4,6,-9,2020-10-18 23:19:37.079
7,17,15,8,14,5,4,8,2020-10-18 23:19:37.085
4,4,-8,-1,-3,-3,-7,4,2020-10-18 23:19:37.093
-10,-4,-42,51,10,4,-3,-11,2020-10-18 23:19:37.108
-6,-11,2,-19,8,-9,-34,-9,2020-10-18 23:19:37.113
0,-13,-4,1,-10,-2,-11,2,2020-10-18 23:19:37.119
0,-13,-4,1,-10,-2,-11,2,2020-10-18 23:19:37.126
4,13,14,-15,-9,6,-1,0,2020-10-18 23:19:37.131
4,13,14,-15,-9,6,-1,0,2020-10-18 23:19:37.137
-14,-5,-11,-35,-3,-2,15,-24,2020-10-18 23:19:37.144
-1,-2,8,-15,1,3,23,2,2020-10-18 23:19:37.151
1,-12,-52,-34,-3,-1,-8,-1,2020-10-18 23:19:37.160
1,-12,-52,-34,-3,-1,-8,-1,2020-10-18 23:19:37.166
1,-12,-52,-34,-3,-1,-8,-1,2020-10-18 23:19:37.171
-2,1,-2,37,-6,-4,-5,-7,2020-10-18 23:19:37.179
-1,-3,-13,-32,-15,-6,-11,-8,2020-10-18 23:19:37.188
-4,7,49,1,2,3,-3,-3,2020-10-18 23:19:37.193
-4,7,49,1,2,3,-3,-3,2020-10-18 23:19:37.199
-2,-2,-13,9,3,0,-19,-1,2020-10-18 23:19:37.208
5,-8,-38,12,1,3,1,6,2020-10-18 23:19:37.215
4,14,24,36,7,2,-4,22,2020-10-18 23:19:37.222
4,14,24,36,7,2,-4,22,2020-10-18 23:19:37.229
-1,14,14,-6,-2,-5,-11,-5,2020-10-18 23:19:37.235
2,-1,-19,-13,3,-2,6,0,2020-10-18 23:19:37.241
-8,-16,-9,-14,-1,-3,5,-7,2020-10-18 23:19:37.247
-8,-16,-9,-14,-1,-3,5,-7,2020-10-18 23:19:37.252
-8,-16,-9,-14,-1,-3,5,-7,2020-10-18 23:19:37.257
-8,-16,-9,-14,-1,-3,5,-7,2020-10-18 23:19:37.264
-8,-16,-9,-14,-1,-3,5,-7,2020-10-18 23:19:37.269
-8,-16,-9,-14,-1,-3,5,-7,2020-10-18 23:19:37.278
1,8,10,4,2,1,-6,1,2020-10-18 23:19:37.284
-12,-9,14,2,-4,-5,-4,-4,2020-10-18 23:19:37.291
-4,-22,-71,-9,-3,0,-7,3,2020-10-18 23:19:37.297
-4,-22,-71,-9,-3,0,-7,3,2020-10-18 23:19:37.303
-2,3,-15,-56,-12,-1,4,-1,2020-10-18 23:19:37.309
-2,3,-15,-56,-12,-1,4,-1,2020-10-18 23:19:37.316
-9,-21,-31,-5,1,-2,-9,-22,2020-10-18 23:19:37.322
-9,-21,-31,-5,1,-2,-9,-22,2020-10-18 23:19:37.329
4,-13,-27,61,26,-1,-24,6,2020-10-18 23:19:37.335
4,-13,-27,61,26,-1,-24,6,2020-10-18 23:19:37.342
1,-2,-6,-4,2,-3,15,0,2020-10-18 23:19:37.349
7,8,7,12,-1,4,20,5,2020-10-18 23:19:37.361
-3,-5,-2,9,1,-3,-4,2,2020-10-18 23:19:37.366
-5,-15,-23,-20,-6,-4,-8,-4,2020-10-18 23:19:37.392
1,13,33,6,0,3,5,-7,2020-10-18 23:19:37.403
6,-5,-26,41,4,1,-3,7,2020-10-18 23:19:37.412
-9,-7,23,-23,-6,-8,-11,-9,2020-10-18 23:19:37.418
-9,-7,23,-23,-6,-8,-11,-9,2020-10-18 23:19:37.425
7,23,45,42,4,6,2,4,2020-10-18 23:19:37.431
7,23,45,42,4,6,2,4,2020-10-18 23:19:37.436
-2,-23,-45,-1,-5,0,5,-1,2020-10-18 23:19:37.445
-3,1,-1,-4,-4,-2,4,-9,2020-10-18 23:19:37.452
-3,1,-1,-4,-4,-2,4,-9,2020-10-18 23:19:37.459
2,9,-2,-40,6,-1,0,4,2020-10-18 23:19:37.467
-2,-7,-29,3,-5,1,9,4,2020-10-18 23:19:37.474
-2,-7,-29,3,-5,1,9,4,2020-10-18 23:19:37.480
-2,-7,-29,3,-5,1,9,4,2020-10-18 23:19:37.486
2,-14,-46,-11,-4,3,9,13,2020-10-18 23:19:37.491
2,-14,-46,-11,-4,3,9,13,2020-10-18 23:19:37.498
1,-1,6,12,-2,2,-4,-3,2020-10-18 23:19:37.504
-3,17,56,4,0,-5,-10,-7,2020-10-18 23:19:37.510
-3,17,56,4,0,-5,-10,-7,2020-10-18 23:19:37.516
-3,17,56,4,0,-5,-10,-7,2020-10-18 23:19:37.522
-7,-7,-16,10,-5,-4,-6,-3,2020-10-18 23:19:37.528
-6,-5,-10,-4,1,-2,-3,-4,2020-10-18 23:19:37.534
-6,-5,-10,-4,1,-2,-3,-4,2020-10-18 23:19:37.543
2,3,-2,45,2,2,1,2,2020-10-18 23:19:37.548
2,3,-2,45,2,2,1,2,2020-10-18 23:19:37.554
2,3,-2,45,2,2,1,2,2020-10-18 23:19:37.561
0,-1,19,-17,-8,-3,-2,3,2020-10-18 23:19:37.568
3,1,-9,-2,0,0,3,-4,2020-10-18 23:19:37.575
3,1,-9,-2,0,0,3,-4,2020-10-18 23:19:37.585
0,4,7,3,-5,-6,0,1,2020-10-18 23:19:37.594
1,-4,-6,-24,-6,-2,-1,-1,2020-10-18 23:19:37.605
-2,10,-2,3,2,-5,-5,-6,2020-10-18 23:19:37.616
-7,-5,3,5,3,3,1,-2,2020-10-18 23:19:37.628
-2,-19,-29,4,-1,-1,-5,0,2020-10-18 23:19:37.639
5,9,-2,-4,-2,-2,-1,1,2020-10-18 23:19:37.651
-4,15,27,-8,3,0,-5,-9,2020-10-18 23:19:37.660
-4,15,27,-8,3,0,-5,-9,2020-10-18 23:19:37.672
-1,5,15,13,-3,-3,-1,-3,2020-10-18 23:19:37.678
11,26,-3,-9,1,4,6,6,2020-10-18 23:19:37.685
-11,-7,-6,-1,-3,-8,-12,-9,2020-10-18 23:19:37.692
-11,-7,-6,-1,-3,-8,-12,-9,2020-10-18 23:19:37.697
-11,-7,-6,-1,-3,-8,-12,-9,2020-10-18 23:19:37.703
2,-18,5,11,0,1,4,4,2020-10-18 23:19:37.710
13,12,-11,11,-4,3,6,11,2020-10-18 23:19:37.716
13,12,-11,11,-4,3,6,11,2020-10-18 23:19:37.723
-3,1,5,-6,11,-3,-5,-4,2020-10-18 23:19:37.729
-3,1,5,-6,11,-3,-5,-4,2020-10-18 23:19:37.735
-4,1,-24,-14,-3,-1,-1,-7,2020-10-18 23:19:37.742
-4,1,-24,-14,-3,-1,-1,-7,2020-10-18 23:19:37.749
0,8,7,-7,-5,1,3,0,2020-10-18 23:19:37.754
0,8,7,-7,-5,1,3,0,2020-10-18 23:19:37.759
-2,3,15,-76,8,-6,-6,-1,2020-10-18 23:19:37.766
-2,3,15,-76,8,-6,-6,-1,2020-10-18 23:19:37.771
-4,14,-9,-33,-5,1,-1,-8,2020-10-18 23:19:37.777
-4,14,-9,-33,-5,1,-1,-8,2020-10-18 23:19:37.785
-4,-6,-19,-14,0,3,9,2,2020-10-18 23:19:37.792
-4,-6,-19,-14,0,3,9,2,2020-10-18 23:19:37.797
9,10,-5,13,-4,4,3,6,2020-10-18 23:19:37.806
-10,-6,11,-1,10,-2,-3,-8,2020-10-18 23:19:37.812
-10,-6,11,-1,10,-2,-3,-8,2020-10-18 23:19:37.817
-10,-6,11,-1,10,-2,-3,-8,2020-10-18 23:19:37.823
-2,3,7,37,6,2,0,0,2020-10-18 23:19:37.829
-8,-31,-23,-6,-7,-3,-3,-1,2020-10-18 23:19:37.835
-8,-31,-23,-6,-7,-3,-3,-1,2020-10-18 23:19:37.843
-3,-8,10,-12,10,0,-2,-5,2020-10-18 23:19:37.848
-3,18,-2,36,30,1,3,2,2020-10-18 23:19:37.854
5,6,1,-7,-13,-1,-2,1,2020-10-18 23:19:37.861
2,7,12,14,-4,3,2,4,2020-10-18 23:19:37.866
-18,-33,-22,-29,-24,-12,-14,-14,2020-10-18 23:19:37.872
-18,-33,-22,-29,-24,-12,-14,-14,2020-10-18 23:19:37.877
-18,-33,-22,-29,-24,-12,-14,-14,2020-10-18 23:19:37.883
-18,-33,-22,-29,-24,-12,-14,-14,2020-10-18 23:19:37.889
3,4,4,-9,-4,0,2,3,2020-10-18 23:19:37.894
3,4,4,-9,-4,0,2,3,2020-10-18 23:19:37.901
-5,-4,-13,-13,-30,-7,-3,-5,2020-10-18 23:19:37.906
-5,-4,-13,-13,-30,-7,-3,-5,2020-10-18 23:19:37.912
9,17,6,16,-10,1,3,6,2020-10-18 23:19:37.923
-2,4,3,26,43,0,0,-1,2020-10-18 23:19:37.929
-12,-11,5,-11,-5,-5,-5,-5,2020-10-18 23:19:37.934
-12,-11,5,-11,-5,-5,-5,-5,2020-10-18 23:19:37.939
-7,-3,3,-1,-5,0,-4,-5,2020-10-18 23:19:37.946
-7,-3,3,-1,-5,0,-4,-5,2020-10-18 23:19:37.951
0,-4,9,3,-6,1,3,0,2020-10-18 23:19:37.956
0,-4,9,3,-6,1,3,0,2020-10-18 23:19:37.962
8,11,-1,-13,-24,3,1,3,2020-10-18 23:19:37.967
8,11,-1,-13,-24,3,1,3,2020-10-18 23:19:37.973
6,11,5,36,49,12,5,5,2020-10-18 23:19:37.979
6,11,5,36,49,12,5,5,2020-10-18 23:19:37.984
-2,-8,-6,5,17,2,2,0,2020-10-18 23:19:37.990
-4,2,-12,-41,-19,-4,-5,-5,2020-10-18 23:19:37.995
-4,2,-12,-41,-19,-4,-5,-5,2020-10-18 23:19:38.001
7,-5,2,24,6,5,3,5,2020-10-18 23:19:38.007
2,-18,-1,7,17,-16,-12,0,2020-10-18 23:19:38.012
2,-18,-1,7,17,-16,-12,0,2020-10-18 23:19:38.018
2,-18,-1,7,17,-16,-12,0,2020-10-18 23:19:38.023
2,-9,-7,-29,-45,-3,5,2,2020-10-18 23:19:38.029
1,5,6,3,36,8,9,6,2020-10-18 23:19:38.033
-6,3,1,39,46,0,-5,-6,2020-10-18 23:19:38.039
-6,3,1,39,46,0,-5,-6,2020-10-18 23:19:38.046
-1,-18,-6,-24,-33,-5,1,-1,2020-10-18 23:19:38.051
-1,-18,-6,-24,-33,-5,1,-1,2020-10-18 23:19:38.056
-1,-18,-6,-24,-33,-5,1,-1,2020-10-18 23:19:38.063
3,2,-3,16,32,9,4,2,2020-10-18 23:19:38.068
1,7,-1,0,-20,6,6,6,2020-10-18 23:19:38.074
1,7,-1,0,-20,6,6,6,2020-10-18 23:19:38.080
0,-10,-10,-9,-16,-2,-2,0,2020-10-18 23:19:38.086
0,-10,-10,-9,-16,-2,-2,0,2020-10-18 23:19:38.091
0,-10,-10,-9,-16,-2,-2,0,2020-10-18 23:19:38.097
10,20,5,13,19,10,7,6,2020-10-18 23:19:38.104
4,-3,0,-2,-5,-8,-7,-4,2020-10-18 23:19:38.109
0,-5,6,-16,-12,-8,-3,0,2020-10-18 23:19:38.115
0,-5,6,-16,-12,-8,-3,0,2020-10-18 23:19:38.121
-7,-13,-16,-27,23,-2,0,-7,2020-10-18 23:19:38.128
13,25,3,-5,-1,2,1,6,2020-10-18 23:19:38.133
13,25,3,-5,-1,2,1,6,2020-10-18 23:19:38.139
13,25,3,-5,-1,2,1,6,2020-10-18 23:19:38.145
6,-14,5,29,8,5,4,9,2020-10-18 23:19:38.157
0,8,-1,1,12,4,0,-5,2020-10-18 23:19:38.163
0,8,-1,1,12,4,0,-5,2020-10-18 23:19:38.168
2,7,21,48,31,11,7,5,2020-10-18 23:19:38.174
2,7,21,48,31,11,7,5,2020-10-18 23:19:38.180
-6,-10,10,-1,-18,-2,-3,-3,2020-10-18 23:19:38.186
6,4,-7,7,-1,0,-1,1,2020-10-18 23:19:38.192
6,4,-7,7,-1,0,-1,1,2020-10-18 23:19:38.197
6,4,-7,7,-1,0,-1,1,2020-10-18 23:19:38.203
6,19,28,-15,-2,-2,0,1,2020-10-18 23:19:38.209
6,4,-6,-29,-50,-5,-1,-3,2020-10-18 23:19:38.214
6,4,-6,-29,-50,-5,-1,-3,2020-10-18 23:19:38.220
6,4,-6,-29,-50,-5,-1,-3,2020-10-18 23:19:38.228
-9,-18,-18,-17,-1,-14,-3,-3,2020-10-18 23:19:38.232
-9,-18,-18,-17,-1,-14,-3,-3,2020-10-18 23:19:38.237
-9,-18,-18,-17,-1,-14,-3,-3,2020-10-18 23:19:38.245
-1,-18,-2,-3,4,2,1,1,2020-10-18 23:19:38.250
3,-2,-5,-3,-6,-3,4,4,2020-10-18 23:19:38.255
3,-2,-5,-3,-6,-3,4,4,2020-10-18 23:19:38.262
-14,-16,3,17,9,2,-4,-9,2020-10-18 23:19:38.267
-14,-16,3,17,9,2,-4,-9,2020-10-18 23:19:38.273
8,-19,-19,12,37,4,-1,4,2020-10-18 23:19:38.281
8,-19,-19,12,37,4,-1,4,2020-10-18 23:19:38.286
-4,-20,-12,2,-26,-4,-3,-4,2020-10-18 23:19:38.292
-4,-20,-12,2,-26,-4,-3,-4,2020-10-18 23:19:38.298
-8,26,-17,-36,1,-1,-5,-6,2020-10-18 23:19:38.303
-8,26,-17,-36,1,-1,-5,-6,2020-10-18 23:19:38.311
-4,26,27,39,8,7,2,-3,2020-10-18 23:19:38.316
-4,26,27,39,8,7,2,-3,2020-10-18 23:19:38.322
11,21,-4,-64,-47,-12,0,6,2020-10-18 23:19:38.328
11,21,-4,-64,-47,-12,0,6,2020-10-18 23:19:38.333
-16,-37,6,34,9,2,-3,-10,2020-10-18 23:19:38.338
-16,-37,6,34,9,2,-3,-10,2020-10-18 23:19:38.345
-13,26,3,32,2,2,-3,-11,2020-10-18 23:19:38.350
-13,26,3,32,2,2,-3,-11,2020-10-18 23:19:38.356
-13,26,3,32,2,2,-3,-11,2020-10-18 23:19:38.363
18,19,5,16,43,0,6,11,2020-10-18 23:19:38.368
-2,32,-1,-46,11,23,8,2,2020-10-18 23:19:38.374
-2,32,-1,-46,11,23,8,2,2020-10-18 23:19:38.381
-2,24,7,-22,-49,-16,-3,-4,2020-10-18 23:19:38.388
-2,24,7,-22,-49,-16,-3,-4,2020-10-18 23:19:38.396
-1,-17,-8,-40,-24,-20,-12,1,2020-10-18 23:19:38.408
-6,-12,8,104,22,-1,-2,0,2020-10-18 23:19:38.414
-6,-12,8,104,22,-1,-2,0,2020-10-18 23:19:38.421
-4,4,-2,-15,29,10,-1,-2,2020-10-18 23:19:38.428
6,4,5,-64,2,6,6,5,2020-10-18 23:19:38.435
6,4,5,-64,2,6,6,5,2020-10-18 23:19:38.442
-2,-6,13,86,40,30,12,2,2020-10-18 23:19:38.449
6,12,-11,-28,23,-7,0,-2,2020-10-18 23:19:38.457
6,12,-11,-28,23,-7,0,-2,2020-10-18 23:19:38.477
-11,-28,6,-10,-13,-7,-6,-6,2020-10-18 23:19:38.488
13,71,4,25,34,8,5,2,2020-10-18 23:19:38.513
-7,-65,-21,-9,-17,11,0,2,2020-10-18 23:19:38.529
-9,-19,-4,-58,-19,9,0,-2,2020-10-18 23:19:38.538
1,-13,-9,-16,3,6,10,0,2020-10-18 23:19:38.555
10,-45,-15,4,-18,-17,0,4,2020-10-18 23:19:38.573
-7,2,9,-2,19,-2,-3,-7,2020-10-18 23:19:38.589
7,61,-12,1,5,2,-7,-3,2020-10-18 23:19:38.603
3,6,-9,-13,-7,-3,-1,1,2020-10-18 23:19:38.612
3,6,-9,-13,-7,-3,-1,1,2020-10-18 23:19:38.623
6,32,-5,16,28,8,3,5,2020-10-18 23:19:38.633
6,32,-5,16,28,8,3,5,2020-10-18 23:19:38.648
21,25,-13,-49,-67,4,1,4,2020-10-18 23:19:38.658
-6,-10,-8,8,52,-1,-3,-9,2020-10-18 23:19:38.678
-6,-10,-8,8,52,-1,-3,-9,2020-10-18 23:19:38.695
-7,25,17,2,-24,-22,-11,-3,2020-10-18 23:19:38.716
1,-67,-8,78,-2,-1,-2,0,2020-10-18 23:19:38.730
-7,3,22,-10,40,15,9,-2,2020-10-18 23:19:38.746
-15,-17,-29,-2,18,19,4,-7,2020-10-18 23:19:38.757
7,27,-13,-44,-45,-3,-2,5,2020-10-18 23:19:38.786
1,14,-14,-80,-16,-11,-12,2,2020-10-18 23:19:38.801
11,-12,-2,22,74,10,1,1,2020-10-18 23:19:38.814
-11,-23,-13,-41,-30,-3,-7,-7,2020-10-18 23:19:38.828
19,24,4,16,-33,-11,2,7,2020-10-18 23:19:38.836
19,24,4,16,-33,-11,2,7,2020-10-18 23:19:38.852
2,-9,6,6,-34,12,6,4,2020-10-18 23:19:38.865
-1,4,14,-19,-47,-1,1,0,2020-10-18 23:19:38.873
-1,4,14,-19,-47,-1,1,0,2020-10-18 23:19:38.888
1,19,-5,57,30,-8,-11,-1,2020-10-18 23:19:38.897
1,19,-5,57,30,-8,-11,-1,2020-10-18 23:19:38.915
7,-23,1,22,-10,3,4,5,2020-10-18 23:19:38.931
-8,-23,1,-23,-5,-19,-13,-5,2020-10-18 23:19:38.939
-8,-23,1,-23,-5,-19,-13,-5,2020-10-18 23:19:38.957
-1,-25,12,-11,10,-3,-4,-1,2020-10-18 23:19:38.968
3,31,3,47,0,-2,2,1,2020-10-18 23:19:38.979
3,31,3,47,0,-2,2,1,2020-10-18 23:19:38.989
0,-9,7,0,-2,-5,-3,-4,2020-10-18 23:19:38.998
-18,-19,-2,-31,36,2,-1,-10,2020-10-18 23:19:39.007
-18,-19,-2,-31,36,2,-1,-10,2020-10-18 23:19:39.017
8,-16,-13,-5,-33,18,20,4,2020-10-18 23:19:39.027
10,41,-5,13,23,3,-5,0,2020-10-18 23:19:39.035
10,41,-5,13,23,3,-5,0,2020-10-18 23:19:39.043
-3,-5,-13,-14,24,11,2,-1,2020-10-18 23:19:39.049
-3,-5,-13,-14,24,11,2,-1,2020-10-18 23:19:39.054
-3,-5,-13,-14,24,11,2,-1,2020-10-18 23:19:39.061
5,32,-12,38,30,9,-4,2,2020-10-18 23:19:39.067
0,-2,1,21,9,-13,-9,-1,2020-10-18 23:19:39.073
19,13,-17,-3,10,-5,-4,6,2020-10-18 23:19:39.080
19,13,-17,-3,10,-5,-4,6,2020-10-18 23:19:39.085
19,13,-17,-3,10,-5,-4,6,2020-10-18 23:19:39.091
-8,-3,8,-22,-14,-1,4,-3,2020-10-18 23:19:39.098
-8,-3,8,-22,-14,-1,4,-3,2020-10-18 23:19:39.104
12,14,-5,-31,-39,-5,-6,3,2020-10-18 23:19:39.111
4,-27,8,-3,-79,-7,9,6,2020-10-18 23:19:39.116
4,-27,8,-3,-79,-7,9,6,2020-10-18 23:19:39.125
-8,-13,0,-1,-4,4,0,-5,2020-10-18 23:19:39.131
-8,-13,0,-1,-4,4,0,-5,2020-10-18 23:19:39.139
-3,14,18,-1,-37,-16,-12,0,2020-10-18 23:19:39.145
8,12,3,4,7,16,8,4,2020-10-18 23:19:39.152
8,12,3,4,7,16,8,4,2020-10-18 23:19:39.157
-13,-31,-13,-48,44,1,-11,-6,2020-10-18 23:19:39.164
4,39,12,9,21,-9,-8,-1,2020-10-18 23:19:39.169
4,39,12,9,21,-9,-8,-1,2020-10-18 23:19:39.177
3,15,-3,36,67,10,1,1,2020-10-18 23:19:39.183
-6,-19,-7,0,24,0,3,-2,2020-10-18 23:19:39.189
-6,-19,-7,0,24,0,3,-2,2020-10-18 23:19:39.196
1,37,7,28,-23,-1,2,-3,2020-10-18 23:19:39.201
1,37,7,28,-23,-1,2,-3,2020-10-18 23:19:39.208
0,-10,-2,0,-25,-18,-6,0,2020-10-18 23:19:39.215
0,0,12,24,0,0,2,0,2020-10-18 23:19:39.221
-2,5,-6,-20,-1,0,-2,-2,2020-10-18 23:19:39.227
-2,5,-6,-20,-1,0,-2,-2,2020-10-18 23:19:39.233
1,6,4,9,4,12,5,2,2020-10-18 23:19:39.239
1,6,4,9,4,12,5,2,2020-10-18 23:19:39.245
-3,1,-7,-6,10,4,11,-2,2020-10-18 23:19:39.256
-11,-16,6,23,0,-5,-3,-6,2020-10-18 23:19:39.264
-11,-16,6,23,0,-5,-3,-6,2020-10-18 23:19:39.269
2,1,6,16,29,5,-3,0,2020-10-18 23:19:39.276
-7,-22,-12,-44,-23,-5,0,-5,2020-10-18 23:19:39.282
-1,-21,-12,12,21,5,-1,-2,2020-10-18 23:19:39.289
-1,-21,-12,12,21,5,-1,-2,2020-10-18 23:19:39.295
0,-1,-4,-29,5,2,-3,-1,2020-10-18 23:19:39.302
0,-1,-4,-29,5,2,-3,-1,2020-10-18 23:19:39.307
-1,3,-6,-14,-16,-4,-2,-1,2020-10-18 23:19:39.314
-14,-21,15,32,12,9,23,1,2020-10-18 23:19:39.319
-14,-21,15,32,12,9,23,1,2020-10-18 23:19:39.325
-14,-21,15,32,12,9,23,1,2020-10-18 23:19:39.331
0,13,-10,-18,-32,-2,0,-2,2020-10-18 23:19:39.337
3,40,12,13,-10,-22,-16,-3,2020-10-18 23:19:39.344
-3,2,-2,15,-12,-5,-1,-1,2020-10-18 23:19:39.350
12,-3,-8,-16,3,1,-1,7,2020-10-18 23:19:39.356
12,-3,-8,-16,3,1,-1,7,2020-10-18 23:19:39.363
12,-3,-8,-16,3,1,-1,7,2020-10-18 23:19:39.368
-4,14,7,-6,-14,-3,-11,-4,2020-10-18 23:19:39.374
-16,-30,-8,10,9,12,3,-6,2020-10-18 23:19:39.380
-16,-30,-8,10,9,12,3,-6,2020-10-18 23:19:39.386
1,-6,-5,-7,15,-2,-2,1,2020-10-18 23:19:39.391
1,-6,-5,-7,15,-2,-2,1,2020-10-18 23:19:39.398
2,-1,-6,2,0,0,-8,0,2020-10-18 23:19:39.404
-1,18,4,-16,22,0,0,-2,2020-10-18 23:19:39.411
2,9,-5,1,1,2,2,1,2020-10-18 23:19:39.417
2,9,-5,1,1,2,2,1,2020-10-18 23:19:39.423
2,9,-5,1,1,2,2,1,2020-10-18 23:19:39.428
-6,-16,-9,-12,1,1,-3,-3,2020-10-18 23:19:39.435
2,-13,-3,-4,29,-7,-5,-1,2020-10-18 23:19:39.443
2,-13,-3,-4,29,-7,-5,-1,2020-10-18 23:19:39.449
5,0,-4,22,-6,5,4,1,2020-10-18 23:19:39.456
4,-3,7,7,-7,-4,3,3,2020-10-18 23:19:39.463
1,-7,9,52,12,7,0,0,2020-10-18 23:19:39.469
1,-7,9,52,12,7,0,0,2020-10-18 23:19:39.474
11,17,-2,-17,-48,-3,-1,2,2020-10-18 23:19:39.481
11,17,-2,-17,-48,-3,-1,2,2020-10-18 23:19:39.486
11,17,-2,-17,-48,-3,-1,2,2020-10-18 23:19:39.491
11,17,-2,-17,-48,-3,-1,2,2020-10-18 23:19:39.499
1,9,-3,0,18,4,2,0,2020-10-18 23:19:39.505
1,9,-3,0,18,4,2,0,2020-10-18 23:19:39.511
-1,-1,-11,-16,13,-10,0,-3,2020-10-18 23:19:39.516
-7,-5,0,5,-4,11,1,-3,2020-10-18 23:19:39.528
-6,-9,5,-5,2,0,-4,-2,2020-10-18 23:19:39.534
-6,-4,4,10,-4,6,2,0,2020-10-18 23:19:39.541
-6,-4,4,10,-4,6,2,0,2020-10-18 23:19:39.547
1,2,-2,-5,14,2,1,-1,2020-10-18 23:19:39.555
-8,-12,-3,-7,-18,-9,-4,-5,2020-10-18 23:19:39.561
-8,-12,-3,-7,-18,-9,-4,-5,2020-10-18 23:19:39.568
-2,2,-3,-30,-14,-2,0,-1,2020-10-18 23:19:39.574
-2,2,-3,-30,-14,-2,0,-1,2020-10-18 23:19:39.583
2,5,5,10,17,-1,3,2,2020-10-18 23:19:39.589
0,1,-1,3,-13,-1,1,-2,2020-10-18 23:19:39.596
-3,-13,-6,-27,9,1,1,-1,2020-10-18 23:19:39.602
-3,-13,-6,-27,9,1,1,-1,2020-10-18 23:19:39.610
-5,-6,-2,-4,-31,-10,-1,1,2020-10-18 23:19:39.615
4,6,7,28,16,2,-1,0,2020-10-18 23:19:39.621
4,6,7,28,16,2,-1,0,2020-10-18 23:19:39.629
-3,-9,-3,5,19,3,-1,-1,2020-10-18 23:19:39.635
1,6,-4,-23,6,-9,-4,-1,2020-10-18 23:19:39.641
3,-3,-4,0,-6,-2,1,1,2020-10-18 23:19:39.647
3,-3,-4,0,-6,-2,1,1,2020-10-18 23:19:39.655
-12,-2,6,5,27,1,-5,-11,2020-10-18 23:19:39.662
-12,-2,6,5,27,1,-5,-11,2020-10-18 23:19:39.669
-3,-1,-1,-3,8,0,-2,-5,2020-10-18 23:19:39.674
3,-5,-8,-24,-12,1,-1,-1,2020-10-18 23:19:39.683
3,-5,-8,-24,-12,1,-1,-1,2020-10-18 23:19:39.689
1,6,11,27,41,7,4,-1,2020-10-18 23:19:39.695
-3,-22,-1,3,1,-4,-3,-2,2020-10-18 23:19:39.701
6,3,-4,-20,-21,-1,0,3,2020-10-18 23:19:39.707
6,3,-4,-20,-21,-1,0,3,2020-10-18 23:19:39.713
-5,-12,-1,11,0,18,4,-3,2020-10-18 23:19:39.719
-5,-12,-1,11,0,18,4,-3,2020-10-18 23:19:39.725
2,1,8,26,-8,2,1,4,2020-10-18 23:19:39.732
2,1,8,26,-8,2,1,4,2020-10-18 23:19:39.737
5,8,-3,-3,-13,-7,1,3,2020-10-18 23:19:39.745
5,8,-3,-3,-13,-7,1,3,2020-10-18 23:19:39.751
5,8,-3,-3,-13,-7,1,3,2020-10-18 23:19:39.757
7,2,-5,18,5,5,4,4,2020-10-18 23:19:39.767
-4,-4,-9,-15,-1,-2,-3,-5,2020-10-18 23:19:39.772
2,8,2,9,-3,-5,-1,2,2020-10-18 23:19:39.779
2,8,2,9,-3,-5,-1,2,2020-10-18 23:19:39.785
5,4,-4,-29,-14,-1,2,3,2020-10-18 23:19:39.790
5,4,-4,-29,-14,-1,2,3,2020-10-18 23:19:39.799
0,10,7,0,1,-2,-1,-1,2020-10-18 23:19:39.805
0,10,7,0,1,-2,-1,-1,2020-10-18 23:19:39.816
1,7,0,-7,-6,5,2,1,2020-10-18 23:19:39.822
5,6,-2,-2,-17,2,2,2,2020-10-18 23:19:39.829
5,6,-2,-2,-17,2,2,2,2020-10-18 23:19:39.834
-6,-10,-4,12,1,-4,-4,-3,2020-10-18 23:19:39.841
-6,-10,-4,12,1,-4,-4,-3,2020-10-18 23:19:39.847
-3,-5,4,8,14,-1,0,-2,2020-10-18 23:19:39.852
3,5,-8,-24,1,-7,-4,0,2020-10-18 23:19:39.858
3,5,-8,-24,1,-7,-4,0,2020-10-18 23:19:39.864
3,5,-8,-24,1,-7,-4,0,2020-10-18 23:19:39.870
-4,21,6,-2,-1,0,0,-4,2020-10-18 23:19:39.877
-2,-8,-2,-5,-5,-3,-2,-1,2020-10-18 23:19:39.882
-2,-8,-2,-5,-5,-3,-2,-1,2020-10-18 23:19:39.888
-2,-8,-2,-5,-5,-3,-2,-1,2020-10-18 23:19:39.894
-8,-13,2,15,8,-1,0,-3,2020-10-18 23:19:39.900
-8,-13,2,15,8,-1,0,-3,2020-10-18 23:19:39.905
0,1,-6,-20,-6,-1,-1,-1,2020-10-18 23:19:39.912
0,1,-6,-20,-6,-1,-1,-1,2020-10-18 23:19:39.917
6,5,0,-30,-6,-2,2,3,2020-10-18 23:19:39.922
6,5,0,-30,-6,-2,2,3,2020-10-18 23:19:39.928
-3,-14,7,19,-12,-5,0,1,2020-10-18 23:19:39.934
-3,-14,7,19,-12,-5,0,1,2020-10-18 23:19:39.939
-2,-9,-5,-46,-32,-3,-1,-3,2020-10-18 23:19:39.945
-2,-9,-5,-46,-32,-3,-1,-3,2020-10-18 23:19:39.951
2,3,1,11,-2,3,1,1,2020-10-18 23:19:39.956
2,3,1,11,-2,3,1,1,2020-10-18 23:19:39.962
2,3,1,11,-2,3,1,1,2020-10-18 23:19:39.968
-3,-8,-3,-7,10,3,1,2,2020-10-18 23:19:39.973
-3,0,3,75,84,7,-1,0,2020-10-18 23:19:39.979
-3,0,3,75,84,7,-1,0,2020-10-18 23:19:39.984
-3,0,3,75,84,7,-1,0,2020-10-18 23:19:39.989
1,6,-5,-13,-7,-5,-4,-2,2020-10-18 23:19:39.996
7,6,-11,-34,-26,-8,-1,3,2020-10-18 23:19:40.001
7,6,-11,-34,-26,-8,-1,3,2020-10-18 23:19:40.006
7,6,-11,-34,-26,-8,-1,3,2020-10-18 23:19:40.013
4,5,8,55,11,4,1,2,2020-10-18 23:19:40.019
4,5,8,55,11,4,1,2,2020-10-18 23:19:40.024
0,-1,0,-13,-20,-1,-1,-1,2020-10-18 23:19:40.031
0,-1,0,-13,-20,-1,-1,-1,2020-10-18 23:19:40.036
8,12,-1,2,28,1,-1,0,2020-10-18 23:19:40.042
8,12,-1,2,28,1,-1,0,2020-10-18 23:19:40.048
-1,-6,4,2,-2,2,0,-1,2020-10-18 23:19:40.053
-1,-6,4,2,-2,2,0,-1,2020-10-18 23:19:40.058
1,1,-3,-23,-32,-7,-3,0,2020-10-18 23:19:40.064
1,1,-3,-23,-32,-7,-3,0,2020-10-18 23:19:40.074
-7,1,5,-2,7,14,3,-4,2020-10-18 23:19:40.080
-7,1,5,-2,7,14,3,-4,2020-10-18 23:19:40.086
-5,-2,-4,-35,-23,0,-3,-5,2020-10-18 23:19:40.091
-5,-2,-4,-35,-23,0,-3,-5,2020-10-18 23:19:40.097
-3,-6,0,-2,-29,-4,-2,0,2020-10-18 23:19:40.103
-3,-6,0,-2,-29,-4,-2,0,2020-10-18 23:19:40.108
8,5,-4,30,34,4,3,2,2020-10-18 23:19:40.114
8,5,-4,30,34,4,3,2,2020-10-18 23:19:40.119
-4,-19,-6,-11,1,-2,0,-1,2020-10-18 23:19:40.125
-4,-19,-6,-11,1,-2,0,-1,2020-10-18 23:19:40.131
1,11,2,-18,-21,-5,0,1,2020-10-18 23:19:40.136
1,11,2,-18,-21,-5,0,1,2020-10-18 23:19:40.142
1,11,2,-18,-21,-5,0,1,2020-10-18 23:19:40.148
10,10,-1,37,21,6,3,2,2020-10-18 23:19:40.153
-7,-6,2,-7,-12,-4,-3,-1,2020-10-18 23:19:40.158
-7,-6,2,-7,-12,-4,-3,-1,2020-10-18 23:19:40.164
-7,-6,2,-7,-12,-4,-3,-1,2020-10-18 23:19:40.170
-1,-6,-4,8,21,-2,-2,-1,2020-10-18 23:19:40.176
-3,2,1,14,8,0,-3,-3,2020-10-18 23:19:40.182
-3,2,1,14,8,0,-3,-3,2020-10-18 23:19:40.188
-3,2,1,14,8,0,-3,-3,2020-10-18 23:19:40.194
-3,1,-1,-3,7,-1,0,-3,2020-10-18 23:19:40.199
-3,1,-1,-3,7,-1,0,-3,2020-10-18 23:19:40.205
2,-5,-5,3,-17,-3,0,0,2020-10-18 23:19:40.211
2,-5,-5,3,-17,-3,0,0,2020-10-18 23:19:40.217
0,2,-4,-8,1,-6,-4,-2,2020-10-18 23:19:40.222
0,2,-4,-8,1,-6,-4,-2,2020-10-18 23:19:40.229
-11,-11,-5,-17,2,1,-2,-5,2020-10-18 23:19:40.235
1,4,-2,7,-1,-4,-1,-3,2020-10-18 23:19:40.239
1,4,-2,7,-1,-4,-1,-3,2020-10-18 23:19:40.246
1,4,-2,7,-1,-4,-1,-3,2020-10-18 23:19:40.251
3,-3,-1,-8,-33,-1,0,2,2020-10-18 23:19:40.256
3,-3,-1,-8,-33,-1,0,2,2020-10-18 23:19:40.263
-4,-9,-1,-13,-11,1,-3,-5,2020-10-18 23:19:40.268
-4,-9,-1,-13,-11,1,-3,-5,2020-10-18 23:19:40.274
2,6,6,15,23,2,2,1,2020-10-18 23:19:40.280
2,6,6,15,23,2,2,1,2020-10-18 23:19:40.286
2,6,6,15,23,2,2,1,2020-10-18 23:19:40.292
3,-2,-2,-7,-14,-2,1,1,2020-10-18 23:19:40.298
-3,-6,-3,3,1,0,0,-3,2020-10-18 23:19:40.304
-3,-6,-3,3,1,0,0,-3,2020-10-18 23:19:40.309
-3,-6,-3,3,1,0,0,-3,2020-10-18 23:19:40.316
-2,1,1,-5,-5,0,-1,-1,2020-10-18 23:19:40.322
-2,1,1,-5,-5,0,-1,-1,2020-10-18 23:19:40.333
-6,-10,4,5,-6,13,3,0,2020-10-18 23:19:40.337
-6,-10,4,5,-6,13,3,0,2020-10-18 23:19:40.344
-6,-10,4,5,-6,13,3,0,2020-10-18 23:19:40.349
0,1,1,-2,11,-2,-3,0,2020-10-18 23:19:40.354
5,5,-8,-12,6,-4,-2,4,2020-10-18 23:19:40.361
5,5,-8,-12,6,-4,-2,4,2020-10-18 23:19:40.366
5,5,-8,-12,6,-4,-2,4,2020-10-18 23:19:40.372
3,23,2,-8,0,2,1,1,2020-10-18 23:19:40.378
-1,-4,0,10,8,0,0,-1,2020-10-18 23:19:40.384
5,8,-6,-13,1,-3,1,1,2020-10-18 23:19:40.389
5,8,-6,-13,1,-3,1,1,2020-10-18 23:19:40.395
1,-5,-2,-11,19,2,0,0,2020-10-18 23:19:40.401
1,-5,-2,-11,19,2,0,0,2020-10-18 23:19:40.406
-2,-7,5,24,-3,0,-2,-1,2020-10-18 23:19:40.412
-2,-7,5,24,-3,0,-2,-1,2020-10-18 23:19:40.417
-4,3,3,-5,-8,-4,-2,-2,2020-10-18 23:19:40.423
-4,3,3,-5,-8,-4,-2,-2,2020-10-18 23:19:40.429
-1,-6,-2,8,3,-8,-4,1,2020-10-18 23:19:40.434
-1,-6,-2,8,3,-8,-4,1,2020-10-18 23:19:40.441
-2,-6,-6,-21,-11,-4,-3,-3,2020-10-18 23:19:40.448
-2,-5,-1,5,10,3,1,-2,2020-10-18 23:19:40.454
0,9,1,4,-6,-1,1,0,2020-10-18 23:19:40.459
0,9,1,4,-6,-1,1,0,2020-10-18 23:19:40.466
-5,-8,-1,3,-5,-2,-2,-2,2020-10-18 23:19:40.471
-1,-6,-3,-18,-5,-4,-4,0,2020-10-18 23:19:40.476
-1,-6,0,-8,8,-1,-2,-2,2020-10-18 23:19:40.482
-1,-6,0,-8,8,-1,-2,-2,2020-10-18 23:19:40.488
-1,-6,0,-8,8,-1,-2,-2,2020-10-18 23:19:40.493
-1,-1,2,7,-3,2,2,-1,2020-10-18 23:19:40.499
1,2,0,-4,0,-4,-1,0,2020-10-18 23:19:40.505
-3,-8,-3,-8,-2,2,0,-1,2020-10-18 23:19:40.511
-3,-8,-3,-8,-2,2,0,-1,2020-10-18 23:19:40.516
-3,-2,-2,6,-1,-4,-2,-3,2020-10-18 23:19:40.522
-3,-2,-2,6,-1,-4,-2,-3,2020-10-18 23:19:40.528
0,-3,0,7,0,3,1,-1,2020-10-18 23:19:40.534
0,-3,0,7,0,3,1,-1,2020-10-18 23:19:40.539
0,0,6,27,-1,0,0,0,2020-10-18 23:19:40.545
0,0,6,27,-1,0,0,0,2020-10-18 23:19:40.550
1,-1,0,6,-3,1,1,2,2020-10-18 23:19:40.556
1,-1,0,6,-3,1,1,2,2020-10-18 23:19:40.563
-1,2,4,23,3,2,0,0,2020-10-18 23:19:40.568
-4,0,2,-1,2,0,0,-1,2020-10-18 23:19:40.573
0,0,-5,-6,-5,-1,-1,-1,2020-10-18 23:19:40.581
0,0,-5,-6,-5,-1,-1,-1,2020-10-18 23:19:40.586
-1,-8,-1,5,-4,0,0,0,2020-10-18 23:19:40.597
0,-8,2,-3,-1,-2,-3,-2,2020-10-18 23:19:40.603
0,-8,2,-3,-1,-2,-3,-2,2020-10-18 23:19:40.609
-3,-1,2,1,6,6,9,-3,2020-10-18 23:19:40.615
-3,-1,2,1,6,6,9,-3,2020-10-18 23:19:40.620
1,1,-1,-10,-3,-4,1,0,2020-10-18 23:19:40.626
0,3,0,7,8,0,-2,0,2020-10-18 23:19:40.632
0,3,0,7,8,0,-2,0,2020-10-18 23:19:40.637
1,4,0,1,-4,-3,0,0,2020-10-18 23:19:40.643
1,4,0,1,-4,-3,0,0,2020-10-18 23:19:40.648
1,4,1,-2,-8,-1,-2,2,2020-10-18 23:19:40.654
1,4,1,-2,-8,-1,-2,2,2020-10-18 23:19:40.659
0,2,-1,-6,-2,0,-2,0,2020-10-18 23:19:40.665
0,2,-1,-6,-2,0,-2,0,2020-10-18 23:19:40.671
2,2,0,5,-7,-3,-1,2,2020-10-18 23:19:40.676
2,2,0,5,-7,-3,-1,2,2020-10-18 23:19:40.683
-3,1,-3,-6,5,3,0,-2,2020-10-18 23:19:40.688
1,1,0,-5,0,-2,-3,-2,2020-10-18 23:19:40.694
-1,-3,-2,-2,-2,-1,1,-1,2020-10-18 23:19:40.700
-1,-3,-2,-2,-2,-1,1,-1,2020-10-18 23:19:40.705
-1,-3,-2,-2,-2,-1,1,-1,2020-10-18 23:19:40.712
-2,4,1,-4,0,-2,-3,-1,2020-10-18 23:19:40.717
-1,2,-1,6,-4,-1,0,0,2020-10-18 23:19:40.723
-1,2,-1,6,-4,-1,0,0,2020-10-18 23:19:40.730
-1,2,-1,6,-4,-1,0,0,2020-10-18 23:19:40.734
-1,2,-1,6,-4,-1,0,0,2020-10-18 23:19:40.740
0,2,-1,-1,-5,-1,0,1,2020-10-18 23:19:40.747
0,-3,-5,-17,2,0,-2,0,2020-10-18 23:19:40.753
-2,0,-1,4,-2,1,0,-4,2020-10-18 23:19:40.758
-2,0,-1,4,-2,1,0,-4,2020-10-18 23:19:40.765
-2,0,-1,4,-2,1,0,-4,2020-10-18 23:19:40.770
1,1,8,13,-2,-1,1,2,2020-10-18 23:19:40.775
-1,-3,-2,-4,0,-1,-1,-2,2020-10-18 23:19:40.781
-1,-3,-2,-4,0,-1,-1,-2,2020-10-18 23:19:40.786
-1,-3,-2,-4,0,-1,-1,-2,2020-10-18 23:19:40.792
2,3,-7,2,1,0,-2,1,2020-10-18 23:19:40.798
3,2,0,-2,0,0,0,2,2020-10-18 23:19:40.804
3,2,0,-2,0,0,0,2,2020-10-18 23:19:40.809
3,2,0,-2,0,0,0,2,2020-10-18 23:19:40.815
0,-2,2,-4,-4,-1,-1,0,2020-10-18 23:19:40.821
0,-2,2,-4,-4,-1,-1,0,2020-10-18 23:19:40.826
-1,1,-9,0,2,1,1,-1,2020-10-18 23:19:40.832
-1,1,-9,0,2,1,1,-1,2020-10-18 23:19:40.838
2,2,-11,-8,4,2,2,1,2020-10-18 23:19:40.844
2,2,-11,-8,4,2,2,1,2020-10-18 23:19:40.850
-1,-3,6,-3,-8,-2,-2,-2,2020-10-18 23:19:40.854
-1,-3,6,-3,-8,-2,-2,-2,2020-10-18 23:19:40.866
-2,-4,2,4,-2,-2,-2,-3,2020-10-18 23:19:40.872
-2,-4,2,4,-2,-2,-2,-3,2020-10-18 23:19:40.877
0,-5,-5,-4,-1,1,-1,-1,2020-10-18 23:19:40.883
0,-5,-5,-4,-1,1,-1,-1,2020-10-18 23:19:40.888
-2,-6,1,13,-5,1,2,1,2020-10-18 23:19:40.894
-4,-1,1,-1,-4,-4,-5,-4,2020-10-18 23:19:40.900
-4,-1,1,-1,-4,-4,-5,-4,2020-10-18 23:19:40.905
-4,-1,1,-1,-4,-4,-5,-4,2020-10-18 23:19:40.912
-3,0,-9,-1,4,0,-2,-1,2020-10-18 23:19:40.917
2,4,0,-7,-1,-2,-1,0,2020-10-18 23:19:40.923
-2,-4,-6,-8,-2,-1,1,-1,2020-10-18 23:19:40.928
-2,-4,-6,-8,-2,-1,1,-1,2020-10-18 23:19:40.933
1,0,-3,-4,-2,-2,-2,1,2020-10-18 23:19:40.940
-2,4,4,7,-1,0,0,1,2020-10-18 23:19:40.946
0,-4,-16,-7,-1,-2,0,-1,2020-10-18 23:19:40.951
0,-4,-16,-7,-1,-2,0,-1,2020-10-18 23:19:40.957
-1,-10,5,4,1,0,2,1,2020-10-18 23:19:40.963
-1,-10,5,4,1,0,2,1,2020-10-18 23:19:40.969
0,0,3,6,-3,-2,1,0,2020-10-18 23:19:40.974
0,0,3,6,-3,-2,1,0,2020-10-18 23:19:40.981
0,2,1,-1,0,-1,-2,-5,2020-10-18 23:19:40.986
0,2,1,-1,0,-1,-2,-5,2020-10-18 23:19:40.991
0,2,1,-1,0,-1,-2,-5,2020-10-18 23:19:40.997
1,0,-4,-14,0,1,1,3,2020-10-18 23:19:41.002
1,0,-4,-14,0,1,1,3,2020-10-18 23:19:41.008
0,-6,-9,-10,-2,-2,-2,-4,2020-10-18 23:19:41.014
0,-6,-9,-10,-2,-2,-2,-4,2020-10-18 23:19:41.019
0,4,12,1,2,0,1,1,2020-10-18 23:19:41.025
0,4,12,1,2,0,1,1,2020-10-18 23:19:41.031
-2,1,5,-6,2,0,-1,-1,2020-10-18 23:19:41.037
-2,1,5,-6,2,0,-1,-1,2020-10-18 23:19:41.043
-3,-6,-14,-30,-3,-3,-3,-4,2020-10-18 23:19:41.049
-3,-6,-14,-30,-3,-3,-3,-4,2020-10-18 23:19:41.053
0,0,-8,13,-3,1,-1,-3,2020-10-18 23:19:41.058
0,0,-8,13,-3,1,-1,-3,2020-10-18 23:19:41.065
0,0,-8,13,-3,1,-1,-3,2020-10-18 23:19:41.070
-1,-7,-5,-28,0,1,-2,0,2020-10-18 23:19:41.075
-2,0,0,7,-5,0,-1,-1,2020-10-18 23:19:41.082
-2,0,0,7,-5,0,-1,-1,2020-10-18 23:19:41.086
-2,0,0,7,-5,0,-1,-1,2020-10-18 23:19:41.092
-2,-1,6,11,-1,0,0,-1,2020-10-18 23:19:41.098
-4,0,-16,-6,-2,-3,0,-1,2020-10-18 23:19:41.104
-4,0,-16,-6,-2,-3,0,-1,2020-10-18 23:19:41.109
-4,0,-16,-6,-2,-3,0,-1,2020-10-18 23:19:41.115
-2,0,2,1,1,-1,-1,-2,2020-10-18 23:19:41.120
-2,0,2,1,1,-1,-1,-2,2020-10-18 23:19:41.126
-4,-6,-5,-5,-3,-4,-3,-2,2020-10-18 23:19:41.136
-4,-6,-5,-5,-3,-4,-3,-2,2020-10-18 23:19:41.142
-2,-3,5,6,-2,-2,-1,0,2020-10-18 23:19:41.149
0,8,6,-3,0,0,-1,-2,2020-10-18 23:19:41.155
0,8,6,-3,0,0,-1,-2,2020-10-18 23:19:41.161
-4,-6,3,-8,5,-1,-1,-2,2020-10-18 23:19:41.167
-4,-6,3,-8,5,-1,-1,-2,2020-10-18 23:19:41.172
3,-2,1,3,0,0,1,1,2020-10-18 23:19:41.177
-2,-4,1,3,-1,1,-2,-4,2020-10-18 23:19:41.183
-2,-4,1,3,-1,1,-2,-4,2020-10-18 23:19:41.189
-4,-8,1,-5,-1,-2,-3,-2,2020-10-18 23:19:41.195
-2,2,1,-1,-3,-1,-4,-1,2020-10-18 23:19:41.202
-2,2,1,-1,-3,-1,-4,-1,2020-10-18 23:19:41.207
-2,2,1,-1,-3,-1,-4,-1,2020-10-18 23:19:41.213
-1,1,10,8,-1,0,-1,0,2020-10-18 23:19:41.218
3,2,-1,4,-3,0,1,2,2020-10-18 23:19:41.223
3,2,-1,4,-3,0,1,2,2020-10-18 23:19:41.230
3,2,-1,4,-3,0,1,2,2020-10-18 23:19:41.235
-3,-2,3,-5,0,-2,-3,-1,2020-10-18 23:19:41.241
-3,-2,3,-5,0,-2,-3,-1,2020-10-18 23:19:41.247
-6,-3,-4,3,0,-1,-1,-1,2020-10-18 23:19:41.252
-6,-3,-4,3,0,-1,-1,-1,2020-10-18 23:19:41.258
2,0,-5,-3,4,1,2,1,2020-10-18 23:19:41.265
2,0,-5,-3,4,1,2,1,2020-10-18 23:19:41.271
0,-3,-1,-2,0,1,-1,1,2020-10-18 23:19:41.276
0,-3,-1,-2,0,1,-1,1,2020-10-18 23:19:41.282
2,1,-1,-11,-5,0,0,2,2020-10-18 23:19:41.287
2,1,-1,-11,-5,0,0,2,2020-10-18 23:19:41.293
4,-3,-5,16,0,1,2,2,2020-10-18 23:19:41.299
4,-3,-5,16,0,1,2,2,2020-10-18 23:19:41.304
4,-3,-5,16,0,1,2,2,2020-10-18 23:19:41.310
-1,2,-6,3,-4,-3,-1,0,2020-10-18 23:19:41.316
-2,-2,-8,-4,2,-1,-1,-1,2020-10-18 23:19:41.322
-2,-2,-8,-4,2,-1,-1,-1,2020-10-18 23:19:41.328
-2,-2,-8,-4,2,-1,-1,-1,2020-10-18 23:19:41.333
-3,-4,-9,-11,1,-1,0,-2,2020-10-18 23:19:41.338
-3,-4,-9,-11,1,-1,0,-2,2020-10-18 23:19:41.344
1,5,1,0,-2,0,-1,-1,2020-10-18 23:19:41.351
1,5,1,0,-2,0,-1,-1,2020-10-18 23:19:41.356
-1,1,4,3,-2,-2,-1,0,2020-10-18 23:19:41.362
-1,1,4,3,-2,-2,-1,0,2020-10-18 23:19:41.368
1,-3,-3,2,-2,0,1,0,2020-10-18 23:19:41.373
1,-3,-3,2,-2,0,1,0,2020-10-18 23:19:41.379
2,-6,4,6,0,-1,-1,0,2020-10-18 23:19:41.385
2,-6,4,6,0,-1,-1,0,2020-10-18 23:19:41.391
-2,3,-4,-3,-2,-1,-2,-3,2020-10-18 23:19:41.397
-2,3,-4,-3,-2,-1,-2,-3,2020-10-18 23:19:41.403
5,3,-4,-3,-3,-2,1,1,2020-10-18 23:19:41.408
5,3,-4,-3,-3,-2,1,1,2020-10-18 23:19:41.419
5,3,-4,-3,-3,-2,1,1,2020-10-18 23:19:41.424
0,-4,3,2,2,0,0,2,2020-10-18 23:19:41.430
-2,-3,-5,1,6,1,0,-1,2020-10-18 23:19:41.436
-1,6,1,6,1,-2,-4,-1,2020-10-18 23:19:41.443
-1,6,1,6,1,-2,-4,-1,2020-10-18 23:19:41.448
-1,4,5,0,-1,-3,-2,-4,2020-10-18 23:19:41.454
-1,4,5,0,-1,-3,-2,-4,2020-10-18 23:19:41.459
-7,-11,-2,-2,1,3,2,-2,2020-10-18 23:19:41.465
-7,-11,-2,-2,1,3,2,-2,2020-10-18 23:19:41.470
-7,-11,-2,-2,1,3,2,-2,2020-10-18 23:19:41.476
-6,0,1,-3,-6,-2,-6,-7,2020-10-18 23:19:41.483
-6,0,1,-3,-6,-2,-6,-7,2020-10-18 23:19:41.487
-3,-5,-3,-4,-2,0,-1,-5,2020-10-18 23:19:41.493
-3,-5,-3,-4,-2,0,-1,-5,2020-10-18 23:19:41.499
4,3,-2,-2,1,1,1,3,2020-10-18 23:19:41.505
4,3,-2,-2,1,1,1,3,2020-10-18 23:19:41.510
1,-6,1,0,0,-1,-1,0,2020-10-18 23:19:41.517
1,-6,1,0,0,-1,-1,0,2020-10-18 23:19:41.522
-1,-2,-8,-5,-3,-4,0,-3,2020-10-18 23:19:41.527
-1,-2,-8,-5,-3,-4,0,-3,2020-10-18 23:19:41.534
4,1,0,3,-2,0,0,2,2020-10-18 23:19:41.538
4,1,0,3,-2,0,0,2,2020-10-18 23:19:41.545
4,1,0,3,-2,0,0,2,2020-10-18 23:19:41.550
1,-1,-2,-7,0,-2,0,2,2020-10-18 23:19:41.555
-2,-2,-2,-9,-1,-3,-3,-2,2020-10-18 23:19:41.561
-2,-2,-2,-9,-1,-3,-3,-2,2020-10-18 23:19:41.567
-2,-2,-2,-9,-1,-3,-3,-2,2020-10-18 23:19:41.573
1,3,6,3,0,-1,0,1,2020-10-18 23:19:41.580
-3,-4,6,4,0,2,4,1,2020-10-18 23:19:41.585
-3,-4,6,4,0,2,4,1,2020-10-18 23:19:41.591
-3,-4,6,4,0,2,4,1,2020-10-18 23:19:41.597
2,4,0,-3,-1,2,0,2,2020-10-18 23:19:41.604
2,4,0,-3,-1,2,0,2,2020-10-18 23:19:41.609
3,-1,3,19,2,-3,-7,0,2020-10-18 23:19:41.615
-1,10,4,4,-6,0,0,-1,2020-10-18 23:19:41.621
-1,10,4,4,-6,0,0,-1,2020-10-18 23:19:41.626
-1,10,4,4,-6,0,0,-1,2020-10-18 23:19:41.633
-3,-6,-5,-4,5,-1,-5,-3,2020-10-18 23:19:41.638
1,6,4,1,5,5,16,1,2020-10-18 23:19:41.644
1,6,4,1,5,5,16,1,2020-10-18 23:19:41.650
1,6,4,1,5,5,16,1,2020-10-18 23:19:41.655
-4,-1,-1,-6,-2,-2,-1,-5,2020-10-18 23:19:41.661
-6,0,0,-3,-5,-4,-5,-2,2020-10-18 23:19:41.667
-6,0,0,-3,-5,-4,-5,-2,2020-10-18 23:19:41.672
-6,0,0,-3,-5,-4,-5,-2,2020-10-18 23:19:41.677
0,-1,-4,7,5,9,-7,-1,2020-10-18 23:19:41.684
0,-1,-4,7,5,9,-7,-1,2020-10-18 23:19:41.690
5,2,-1,-7,-7,1,1,2,2020-10-18 23:19:41.701
-5,-1,4,18,16,-5,-6,-4,2020-10-18 23:19:41.706
-5,-1,4,18,16,-5,-6,-4,2020-10-18 23:19:41.712
3,2,2,-5,-12,-4,1,0,2020-10-18 23:19:41.718
-4,-7,-10,-2,-1,-3,-7,-3,2020-10-18 23:19:41.724
-4,-7,-10,-2,-1,-3,-7,-3,2020-10-18 23:19:41.730
0,3,3,1,-6,0,1,-1,2020-10-18 23:19:41.736
-1,-1,-7,-11,1,-4,-1,-2,2020-10-18 23:19:41.741
-1,-1,-7,-11,1,-4,-1,-2,2020-10-18 23:19:41.747
-1,-1,-7,-11,1,-4,-1,-2,2020-10-18 23:19:41.753
-3,-6,-7,-34,2,3,-1,-4,2020-10-18 23:19:41.758
1,-2,2,0,2,6,1,-1,2020-10-18 23:19:41.764
1,-2,2,0,2,6,1,-1,2020-10-18 23:19:41.770
1,-2,2,0,2,6,1,-1,2020-10-18 23:19:41.775
4,3,5,20,13,4,4,5,2020-10-18 23:19:41.782
-3,-2,-5,-14,-13,-7,-5,-3,2020-10-18 23:19:41.788
-3,-2,-5,-14,-13,-7,-5,-3,2020-10-18 23:19:41.793
-3,-2,-5,-14,-13,-7,-5,-3,2020-10-18 23:19:41.799
0,-4,1,0,8,-2,-1,0,2020-10-18 23:19:41.804
0,-4,1,0,8,-2,-1,0,2020-10-18 23:19:41.810
-2,-4,-2,-4,-11,3,10,-1,2020-10-18 23:19:41.817
-2,-4,-2,-4,-11,3,10,-1,2020-10-18 23:19:41.823
1,1,2,5,-3,6,4,0,2020-10-18 23:19:41.828
1,1,2,5,-3,6,4,0,2020-10-18 23:19:41.833
-1,-2,-4,-5,9,0,-3,-3,2020-10-18 23:19:41.839
3,26,-1,8,-1,-15,-6,-2,2020-10-18 23:19:41.845
3,26,-1,8,-1,-15,-6,-2,2020-10-18 23:19:41.850
3,26,-1,8,-1,-15,-6,-2,2020-10-18 23:19:41.856
1,1,0,-15,-9,-12,-13,2,2020-10-18 23:19:41.862
1,1,0,-15,-9,-12,-13,2,2020-10-18 23:19:41.869
5,8,2,10,9,19,10,2,2020-10-18 23:19:41.873
5,8,2,10,9,19,10,2,2020-10-18 23:19:41.879
0,-3,8,15,8,-6,-1,0,2020-10-18 23:19:41.885
0,-3,8,15,8,-6,-1,0,2020-10-18 23:19:41.891
0,-3,8,15,8,-6,-1,0,2020-10-18 23:19:41.897
2,6,0,-1,-4,5,-1,1,2020-10-18 23:19:41.903
-4,-2,-1,-2,-40,-1,3,-1,2020-10-18 23:19:41.908
-4,-2,-1,-2,-40,-1,3,-1,2020-10-18 23:19:41.913
-4,-2,-1,-2,-40,-1,3,-1,2020-10-18 23:19:41.920
-5,-11,2,-6,-10,-15,-21,-6,2020-10-18 23:19:41.925
-5,-11,2,-6,-10,-15,-21,-6,2020-10-18 23:19:41.932
-4,1,-1,-17,-21,-20,-14,-5,2020-10-18 23:19:41.938
-3,4,-5,-2,64,19,17,-3,2020-10-18 23:19:41.943
-3,4,-5,-2,64,19,17,-3,2020-10-18 23:19:41.949
-3,4,-5,-2,64,19,17,-3,2020-10-18 23:19:41.955
-3,-21,-2,13,-2,-32,-16,-3,2020-10-18 23:19:41.961
-5,0,4,-8,-42,25,-14,-2,2020-10-18 23:19:41.966
-5,0,4,-8,-42,25,-14,-2,2020-10-18 23:19:41.972
-5,0,4,-8,-42,25,-14,-2,2020-10-18 23:19:41.977
9,3,-2,-3,-4,-5,46,7,2020-10-18 23:19:41.989
-9,-35,3,25,31,19,6,-5,2020-10-18 23:19:41.994
-9,-35,3,25,31,19,6,-5,2020-10-18 23:19:42.000
7,15,11,-7,-14,-17,-11,7,2020-10-18 23:19:42.006
7,15,11,-7,-14,-17,-11,7,2020-10-18 23:19:42.011
1,23,-3,-3,2,-109,-82,-10,2020-10-18 23:19:42.017
1,23,-3,-3,2,-109,-82,-10,2020-10-18 23:19:42.023
-3,19,-7,-3,-29,-67,-17,-4,2020-10-18 23:19:42.027
-3,19,-7,-3,-29,-67,-17,-4,2020-10-18 23:19:42.033
-3,19,-7,-3,-29,-67,-17,-4,2020-10-18 23:19:42.039
-7,-37,-16,-32,-8,-54,-41,-13,2020-10-18 23:19:42.046
-7,-37,-16,-32,-8,-54,-41,-13,2020-10-18 23:19:42.051
-5,-19,-8,-14,-38,-56,-86,-18,2020-10-18 23:19:42.057
1,21,-10,-4,4,22,86,13,2020-10-18 23:19:42.063
0,-10,11,22,6,-9,-46,-5,2020-10-18 23:19:42.068
0,-10,11,22,6,-9,-46,-5,2020-10-18 23:19:42.074
-11,-12,3,30,22,-29,21,-6,2020-10-18 23:19:42.081
-6,-10,15,-13,-2,27,-34,-8,2020-10-18 23:19:42.086
-6,-10,15,-13,-2,27,-34,-8,2020-10-18 23:19:42.092
-6,-10,15,-13,-2,27,-34,-8,2020-10-18 23:19:42.098
-8,-29,-37,9,23,103,78,6,2020-10-18 23:19:42.104
-8,-29,-37,9,23,103,78,6,2020-10-18 23:19:42.109
6,49,-1,-5,-13,50,65,9,2020-10-18 23:19:42.116
6,49,-1,-5,-13,50,65,9,2020-10-18 23:19:42.123
-20,-56,5,-16,-6,-82,-62,-19,2020-10-18 23:19:42.128
-20,-56,5,-16,-6,-82,-62,-19,2020-10-18 23:19:42.134
0,-8,-15,8,13,114,95,10,2020-10-18 23:19:42.139
0,-8,-15,8,13,114,95,10,2020-10-18 23:19:42.144
7,8,-3,0,22,54,103,20,2020-10-18 23:19:42.150
7,8,-3,0,22,54,103,20,2020-10-18 23:19:42.156
13,28,16,20,0,16,2,15,2020-10-18 23:19:42.162
13,28,16,20,0,16,2,15,2020-10-18 23:19:42.168
13,28,16,20,0,16,2,15,2020-10-18 23:19:42.173
-1,-1,15,-14,-18,-30,6,6,2020-10-18 23:19:42.179
0,25,-17,7,33,56,43,1,2020-10-18 23:19:42.185
0,25,-17,7,33,56,43,1,2020-10-18 23:19:42.190
0,25,-17,7,33,56,43,1,2020-10-18 23:19:42.196
-2,14,18,5,6,31,-30,1,2020-10-18 23:19:42.202
10,-4,2,-9,-20,-32,-24,-4,2020-10-18 23:19:42.208
10,-4,2,-9,-20,-32,-24,-4,2020-10-18 23:19:42.213
10,-4,2,-9,-20,-32,-24,-4,2020-10-18 23:19:42.219
5,13,-1,9,14,9,-13,3,2020-10-18 23:19:42.225
5,13,-1,9,14,9,-13,3,2020-10-18 23:19:42.231
-14,15,11,-29,-12,-101,-109,-22,2020-10-18 23:19:42.237
-14,15,11,-29,-12,-101,-109,-22,2020-10-18 23:19:42.242
2,-1,-12,23,29,5,-20,3,2020-10-18 23:19:42.248
2,-1,-12,23,29,5,-20,3,2020-10-18 23:19:42.254
4,8,-6,4,-8,-78,-39,-4,2020-10-18 23:19:42.259
-3,2,8,-1,-24,68,10,3,2020-10-18 23:19:42.265
-1,-10,-1,-20,-14,-7,-6,-9,2020-10-18 23:19:42.271
-1,-10,-1,-20,-14,-7,-6,-9,2020-10-18 23:19:42.284
-2,-7,2,-4,-23,-73,-67,-6,2020-10-18 23:19:42.289
-11,-39,-5,9,16,18,23,-4,2020-10-18 23:19:42.295
-11,-39,-5,9,16,18,23,-4,2020-10-18 23:19:42.302
-2,49,16,-9,-19,-8,14,3,2020-10-18 23:19:42.307
-2,49,16,-9,-19,-8,14,3,2020-10-18 23:19:42.313
11,8,-16,-38,-33,-92,14,-3,2020-10-18 23:19:42.318
11,8,-16,-38,-33,-92,14,-3,2020-10-18 23:19:42.323
11,8,-16,-38,-33,-92,14,-3,2020-10-18 23:19:42.330
-5,-16,-11,14,13,-17,-5,-4,2020-10-18 23:19:42.336
4,-4,-2,-11,-13,-56,-18,-1,2020-10-18 23:19:42.342
4,-4,-2,-11,-13,-56,-18,-1,2020-10-18 23:19:42.348
-26,-19,10,24,18,80,22,2,2020-10-18 23:19:42.354
-26,-19,10,24,18,80,22,2,2020-10-18 23:19:42.359
-3,-6,-14,10,24,23,16,3,2020-10-18 23:19:42.366
-3,-6,-14,10,24,23,16,3,2020-10-18 23:19:42.371
6,-8,-22,-13,-14,-84,-38,-3,2020-10-18 23:19:42.377
6,-8,-22,-13,-14,-84,-38,-3,2020-10-18 23:19:42.383
6,-8,-22,-13,-14,-84,-38,-3,2020-10-18 23:19:42.389
-2,-6,2,4,0,34,-1,1,2020-10-18 23:19:42.394
-2,-6,2,4,0,34,-1,1,2020-10-18 23:19:42.401
-2,-6,2,4,0,34,-1,1,2020-10-18 23:19:42.406
7,-2,8,-15,-27,-91,-77,-4,2020-10-18 23:19:42.412
4,3,-2,14,2,-14,1,2,2020-10-18 23:19:42.417
-2,-9,8,8,7,31,5,-2,2020-10-18 23:19:42.423
-2,-9,8,8,7,31,5,-2,2020-10-18 23:19:42.429
-2,-9,8,8,7,31,5,-2,2020-10-18 23:19:42.434
4,3,-5,-25,-63,-128,-128,-22,2020-10-18 23:19:42.441
-13,-3,5,33,-11,24,32,-1,2020-10-18 23:19:42.448
-13,-3,5,33,-11,24,32,-1,2020-10-18 23:19:42.453
-13,-3,5,33,-11,24,32,-1,2020-10-18 23:19:42.459
-11,-20,0,-3,19,68,-3,-6,2020-10-18 23:19:42.465
-11,-20,0,-3,19,68,-3,-6,2020-10-18 23:19:42.471
7,-11,-16,0,-25,11,-16,4,2020-10-18 23:19:42.477
2,11,-4,1,10,-23,-25,-6,2020-10-18 23:19:42.484
2,11,-4,1,10,-23,-25,-6,2020-10-18 23:19:42.489
2,11,-4,1,10,-23,-25,-6,2020-10-18 23:19:42.494
0,-9,12,5,15,28,1,-2,2020-10-18 23:19:42.501
20,19,-13,-9,-27,-72,-90,-18,2020-10-18 23:19:42.507
20,19,-13,-9,-27,-72,-90,-18,2020-10-18 23:19:42.512
20,19,-13,-9,-27,-72,-90,-18,2020-10-18 23:19:42.518
7,-9,-15,-15,1,69,27,2,2020-10-18 23:19:42.524
7,-9,-15,-15,1,69,27,2,2020-10-18 23:19:42.529
-1,2,10,6,11,-40,-54,-8,2020-10-18 23:19:42.534
-1,2,10,6,11,-40,-54,-8,2020-10-18 23:19:42.541
-7,26,0,-8,7,24,6,2,2020-10-18 23:19:42.547
-7,26,0,-8,7,24,6,2,2020-10-18 23:19:42.553
-2,-15,-18,-6,25,69,68,6,2020-10-18 23:19:42.558
-2,-15,-18,-6,25,69,68,6,2020-10-18 23:19:42.564
-1,-13,2,-19,23,2,44,9,2020-10-18 23:19:42.569
-1,-13,2,-19,23,2,44,9,2020-10-18 23:19:42.581
19,63,19,-1,-17,-22,37,22,2020-10-18 23:19:42.587
19,63,19,-1,-17,-22,37,22,2020-10-18 23:19:42.592
1,8,3,-9,-2,-54,-39,-1,2020-10-18 23:19:42.597
-1,-7,3,6,-16,-20,6,4,2020-10-18 23:19:42.604
-1,-7,3,6,-16,-20,6,4,2020-10-18 23:19:42.609
-1,-7,3,6,-16,-20,6,4,2020-10-18 23:19:42.615
-3,5,-5,3,-5,-72,-71,-8,2020-10-18 23:19:42.621
-17,-18,14,7,14,31,31,4,2020-10-18 23:19:42.626
-17,-18,14,7,14,31,31,4,2020-10-18 23:19:42.632
-17,-18,14,7,14,31,31,4,2020-10-18 23:19:42.639
-4,-3,-5,-1,11,-3,-11,1,2020-10-18 23:19:42.645
-4,-32,-5,-10,-27,-50,-59,-13,2020-10-18 23:19:42.651
5,10,16,7,25,112,109,20,2020-10-18 23:19:42.656
5,10,16,7,25,112,109,20,2020-10-18 23:19:42.662
5,10,16,7,25,112,109,20,2020-10-18 23:19:42.668
-4,-2,-12,-2,5,-8,-12,-3,2020-10-18 23:19:42.673
6,-13,-11,-5,5,-16,-16,-2,2020-10-18 23:19:42.678
6,-13,-11,-5,5,-16,-16,-2,2020-10-18 23:19:42.684
-1,6,-3,-6,6,6,-17,0,2020-10-18 23:19:42.690
-1,6,-3,-6,6,6,-17,0,2020-10-18 23:19:42.696
-6,-2,-2,-17,-4,-37,-26,-9,2020-10-18 23:19:42.702
-6,13,-9,-38,-1,-15,-14,-4,2020-10-18 23:19:42.707
-6,13,-9,-38,-1,-15,-14,-4,2020-10-18 23:19:42.714
-6,13,-9,-38,-1,-15,-14,-4,2020-10-18 23:19:42.719
1,-21,-9,15,20,-4,15,-1,2020-10-18 23:19:42.725
1,-21,-9,15,20,-4,15,-1,2020-10-18 23:19:42.731
-12,-29,3,2,-9,-26,-18,-6,2020-10-18 23:19:42.737
-12,-29,3,2,-9,-26,-18,-6,2020-10-18 23:19:42.742
3,-1,-6,1,-12,13,26,1,2020-10-18 23:19:42.749
3,-1,-6,1,-12,13,26,1,2020-10-18 23:19:42.755
1,-9,-4,-7,-6,-15,-9,-3,2020-10-18 23:19:42.761
-9,1,8,-6,-6,3,-19,-7,2020-10-18 23:19:42.767
-9,1,8,-6,-6,3,-19,-7,2020-10-18 23:19:42.772
-9,1,8,-6,-6,3,-19,-7,2020-10-18 23:19:42.777
6,5,-9,-6,-8,-58,-75,-5,2020-10-18 23:19:42.784
-1,3,0,10,2,24,11,-2,2020-10-18 23:19:42.789
-1,3,0,10,2,24,11,-2,2020-10-18 23:19:42.795
4,28,0,2,-19,-36,-21,-3,2020-10-18 23:19:42.801
-1,2,4,6,7,-14,13,0,2020-10-18 23:19:42.806
-1,2,4,6,7,-14,13,0,2020-10-18 23:19:42.812
-1,2,4,6,7,-14,13,0,2020-10-18 23:19:42.819
-2,-4,1,3,-3,-33,-1,0,2020-10-18 23:19:42.825
-2,-4,13,27,6,9,16,1,2020-10-18 23:19:42.830
-2,-4,13,27,6,9,16,1,2020-10-18 23:19:42.835
-2,-4,13,27,6,9,16,1,2020-10-18 23:19:42.841
6,-5,1,6,15,27,6,2,2020-10-18 23:19:42.847
6,-5,1,6,15,27,6,2,2020-10-18 23:19:42.852
-5,9,8,3,-7,-5,2,-2,2020-10-18 23:19:42.857
-5,9,8,3,-7,-5,2,-2,2020-10-18 23:19:42.869
0,5,0,-3,-6,6,6,4,2020-10-18 23:19:42.874
1,-9,1,1,7,9,-6,0,2020-10-18 23:19:42.881
-4,-8,-7,-6,-12,-19,1,-2,2020-10-18 23:19:42.886
-4,-8,-7,-6,-12,-19,1,-2,2020-10-18 23:19:42.892
-4,-8,-7,-6,-12,-19,1,-2,2020-10-18 23:19:42.899
3,-4,-12,-3,12,7,2,1,2020-10-18 23:19:42.905
3,-4,-12,-3,12,7,2,1,2020-10-18 23:19:42.910
-11,-7,2,-1,10,8,11,-4,2020-10-18 23:19:42.917
-4,-8,-3,13,-7,-27,-5,-1,2020-10-18 23:19:42.922
2,-4,-5,-22,-13,-7,8,0,2020-10-18 23:19:42.927
2,-4,-5,-22,-13,-7,8,0,2020-10-18 23:19:42.933
2,-4,-5,-22,-13,-7,8,0,2020-10-18 23:19:42.938
1,-2,-2,-3,5,-13,8,-3,2020-10-18 23:19:42.944
2,-3,7,1,-11,-2,1,6,2020-10-18 23:19:42.950
2,-3,7,1,-11,-2,1,6,2020-10-18 23:19:42.955
2,-3,7,1,-11,-2,1,6,2020-10-18 23:19:42.962
0,-1,1,5,1,-7,-4,-3,2020-10-18 23:19:42.967
0,-1,1,5,1,-7,-4,-3,2020-10-18 23:19:42.973
-1,3,-2,-5,-6,11,2,-6,2020-10-18 23:19:42.979
-1,3,-2,-5,-6,11,2,-6,2020-10-18 23:19:42.985
-2,-4,2,-2,1,-5,-9,-2,2020-10-18 23:19:42.991
-2,-4,2,-2,1,-5,-9,-2,2020-10-18 23:19:42.996
-3,3,1,5,-2,5,-6,-4,2020-10-18 23:19:43.002
-3,8,2,5,-5,-9,-3,-3,2020-10-18 23:19:43.008
-3,8,2,5,-5,-9,-3,-3,2020-10-18 23:19:43.013
-3,8,2,5,-5,-9,-3,-3,2020-10-18 23:19:43.019
0,-2,-2,-2,-2,-1,1,-2,2020-10-18 23:19:43.025
0,-2,-2,-2,-2,-1,1,-2,2020-10-18 23:19:43.031
-2,-5,2,-1,0,1,-12,-1,2020-10-18 23:19:43.036
-2,-5,2,-1,0,1,-12,-1,2020-10-18 23:19:43.042
-3,2,0,-3,0,-5,-7,-4,2020-10-18 23:19:43.048
-3,2,0,-3,0,-5,-7,-4,2020-10-18 23:19:43.054
0,1,-3,-1,-2,2,1,1,2020-10-18 23:19:43.059
0,1,-3,-1,-2,2,1,1,2020-10-18 23:19:43.065
-3,-2,-1,1,-1,-1,-1,-2,2020-10-18 23:19:43.071
-3,-2,-1,1,-1,-1,-1,-2,2020-10-18 23:19:43.076
2,-3,-3,-2,-1,4,2,-1,2020-10-18 23:19:43.084
-1,-3,-1,-2,0,-2,2,-1,2020-10-18 23:19:43.089
-1,-3,-1,-2,0,-2,2,-1,2020-10-18 23:19:43.094
0,0,1,5,1,4,1,0,2020-10-18 23:19:43.101
1,-3,-6,1,0,-4,-2,11,2020-10-18 23:19:43.106
1,-3,-6,1,0,-4,-2,11,2020-10-18 23:19:43.111
1,-3,-6,1,0,-4,-2,11,2020-10-18 23:19:43.118
-3,-3,-5,-7,-3,2,0,-1,2020-10-18 23:19:43.124
-2,-3,-9,-3,-2,-6,-4,-8,2020-10-18 23:19:43.129
-2,-3,-9,-3,-2,-6,-4,-8,2020-10-18 23:19:43.134
-2,-3,-9,-3,-2,-6,-4,-8,2020-10-18 23:19:43.140
-4,-4,-10,-3,-3,1,-2,-4,2020-10-18 23:19:43.145
-4,-4,-10,-3,-3,1,-2,-4,2020-10-18 23:19:43.152
-4,-4,-10,-3,-3,1,-2,-4,2020-10-18 23:19:43.157
-4,-4,-10,-3,-3,1,-2,-4,2020-10-18 23:19:43.163
0,-3,2,1,0,0,1,0,2020-10-18 23:19:43.168
0,-3,2,1,0,0,1,0,2020-10-18 23:19:43.179
2,6,-6,-5,-1,0,2,-1,2020-10-18 23:19:43.186
-2,7,22,5,0,-3,-2,-1,2020-10-18 23:19:43.190
-2,7,22,5,0,-3,-2,-1,2020-10-18 23:19:43.197
-2,7,22,5,0,-3,-2,-1,2020-10-18 23:19:43.202
-2,-1,-8,-1,-1,0,-1,-5,2020-10-18 23:19:43.207
-2,-1,-8,-1,-1,0,-1,-5,2020-10-18 23:19:43.214
-1,0,24,4,1,1,-1,-5,2020-10-18 23:19:43.220
3,8,-1,1,4,1,0,3,2020-10-18 23:19:43.225
-1,0,3,0,-1,1,0,-1,2020-10-18 23:19:43.231
-1,0,3,0,-1,1,0,-1,2020-10-18 23:19:43.237
0,-5,7,-3,-1,0,-2,0,2020-10-18 23:19:43.242
-2,-1,0,-22,-4,-2,-2,-1,2020-10-18 23:19:43.248
-2,-1,0,-22,-4,-2,-2,-1,2020-10-18 23:19:43.254
-2,-1,0,-22,-4,-2,-2,-1,2020-10-18 23:19:43.259
3,8,-2,6,1,0,-2,-1,2020-10-18 23:19:43.265
3,8,-2,6,1,0,-2,-1,2020-10-18 23:19:43.271
-2,-5,-12,-8,-4,-2,0,-2,2020-10-18 23:19:43.276
-2,-5,-12,-8,-4,-2,0,-2,2020-10-18 23:19:43.283
-2,-4,-4,4,0,0,-2,0,2020-10-18 23:19:43.288
-2,-4,-4,4,0,0,-2,0,2020-10-18 23:19:43.293
-2,-4,-4,4,0,0,-2,0,2020-10-18 23:19:43.299
-3,-1,-3,5,0,-1,4,-2,2020-10-18 23:19:43.305
0,0,-5,0,0,-1,0,0,2020-10-18 23:19:43.310
0,0,-5,0,0,-1,0,0,2020-10-18 23:19:43.317
0,0,-5,0,0,-1,0,0,2020-10-18 23:19:43.323
-3,-4,1,-1,-3,-3,-2,-4,2020-10-18 23:19:43.328
-3,-4,1,-1,-3,-3,-2,-4,2020-10-18 23:19:43.333
-1,4,-3,4,-2,-2,1,-1,2020-10-18 23:19:43.339
-8,8,8,2,0,1,1,-3,2020-10-18 23:19:43.345
-8,8,8,2,0,1,1,-3,2020-10-18 23:19:43.351
-8,8,8,2,0,1,1,-3,2020-10-18 23:19:43.356
1,4,2,26,-1,-11,-4,0,2020-10-18 23:19:43.363
-3,3,-1,3,4,5,4,0,2020-10-18 23:19:43.368
-3,3,-1,3,4,5,4,0,2020-10-18 23:19:43.375
-3,3,-1,3,4,5,4,0,2020-10-18 23:19:43.380
-1,-7,-4,3,11,60,33,5,2020-10-18 23:19:43.386
-1,-7,-4,3,11,60,33,5,2020-10-18 23:19:43.391
-4,0,-4,-6,13,121,69,8,2020-10-18 23:19:43.397
-4,0,-4,-6,13,121,69,8,2020-10-18 23:19:43.403
2,9,0,-3,6,56,18,3,2020-10-18 23:19:43.408
2,9,0,-3,6,56,18,3,2020-10-18 23:19:43.414
1,-2,-3,-7,-11,-18,5,-2,2020-10-18 23:19:43.420
1,-2,-3,-7,-11,-18,5,-2,2020-10-18 23:19:43.426
7,-1,1,4,3,66,75,16,2020-10-18 23:19:43.432
7,-1,1,4,3,66,75,16,2020-10-18 23:19:43.437
7,-1,1,4,3,66,75,16,2020-10-18 23:19:43.444
4,12,0,2,1,3,-2,-4,2020-10-18 23:19:43.450
-6,-2,3,-3,4,60,66,6,2020-10-18 23:19:43.456
13,5,-12,-2,11,52,47,14,2020-10-18 23:19:43.462
-11,0,13,2,-2,-71,-81,-16,2020-10-18 23:19:43.468
-11,0,13,2,-2,-71,-81,-16,2020-10-18 23:19:43.479
1,9,3,6,-1,23,7,0,2020-10-18 23:19:43.485
-5,-15,-19,-8,-13,-33,-16,-9,2020-10-18 23:19:43.490
-5,-15,-19,-8,-13,-33,-16,-9,2020-10-18 23:19:43.496
-5,-15,-19,-8,-13,-33,-16,-9,2020-10-18 23:19:43.502
-1,-16,6,-12,-24,-15,3,3,2020-10-18 23:19:43.507
-1,-16,6,-12,-24,-15,3,3,2020-10-18 23:19:43.513
-3,-7,-1,13,-16,-107,-74,-8,2020-10-18 23:19:43.519
-3,-7,-1,13,-16,-107,-74,-8,2020-10-18 23:19:43.524
-9,-25,-5,15,15,-7,-8,-7,2020-10-18 23:19:43.530
-9,-25,-5,15,15,-7,-8,-7,2020-10-18 23:19:43.536
-3,-5,-1,-21,-1,3,12,-1,2020-10-18 23:19:43.541
1,9,2,3,-17,-128,-79,-6,2020-10-18 23:19:43.549
10,5,5,5,18,66,61,13,2020-10-18 23:19:43.554
10,5,5,5,18,66,61,13,2020-10-18 23:19:43.559
2,2,6,0,5,23,12,3,2020-10-18 23:19:43.566
1,15,-20,-47,-7,-67,-38,-7,2020-10-18 23:19:43.572
2,-20,-12,-19,-8,38,-25,-3,2020-10-18 23:19:43.577
2,-20,-12,-19,-8,38,-25,-3,2020-10-18 23:19:43.583
13,4,-3,16,11,59,41,20,2020-10-18 23:19:43.589
13,4,-3,16,11,59,41,20,2020-10-18 23:19:43.594
-4,2,0,-12,-26,-68,-84,-11,2020-10-18 23:19:43.600
-4,2,0,-12,-26,-68,-84,-11,2020-10-18 23:19:43.606
-7,-10,-1,5,-13,-80,-72,-15,2020-10-18 23:19:43.611
-7,-10,-1,5,-13,-80,-72,-15,2020-10-18 23:19:43.617
3,2,0,-4,-5,25,-20,0,2020-10-18 23:19:43.623
-3,7,9,9,12,87,56,8,2020-10-18 23:19:43.628
-3,7,9,9,12,87,56,8,2020-10-18 23:19:43.634
-3,7,9,9,12,87,56,8,2020-10-18 23:19:43.640
-3,7,9,9,12,87,56,8,2020-10-18 23:19:43.645
-6,-32,-1,-29,-23,-86,-100,-16,2020-10-18 23:19:43.652
-6,-32,-1,-29,-23,-86,-100,-16,2020-10-18 23:19:43.657
-5,-5,-13,-7,-7,7,-35,-2,2020-10-18 23:19:43.663
4,7,-11,2,-10,-91,-8,-1,2020-10-18 23:19:43.669
4,7,-11,2,-10,-91,-8,-1,2020-10-18 23:19:43.674
4,7,-11,2,-10,-91,-8,-1,2020-10-18 23:19:43.679
-5,-5,0,-7,6,-36,80,6,2020-10-18 23:19:43.685
-5,-5,0,-7,6,-36,80,6,2020-10-18 23:19:43.691
-1,5,-4,-12,-25,-70,-84,-10,2020-10-18 23:19:43.697
-1,5,-4,-12,-25,-70,-84,-10,2020-10-18 23:19:43.703
9,4,5,3,8,68,97,19,2020-10-18 23:19:43.708
9,4,5,3,8,68,97,19,2020-10-18 23:19:43.714
-1,-9,-6,-7,27,127,68,10,2020-10-18 23:19:43.721
-1,-9,-6,-7,27,127,68,10,2020-10-18 23:19:43.726
6,-5,-6,0,3,-20,-14,6,2020-10-18 23:19:43.732
6,-5,-6,0,3,-20,-14,6,2020-10-18 23:19:43.737
6,-4,11,-4,-5,18,89,18,2020-10-18 23:19:43.744
-6,48,12,21,-40,-94,-77,-20,2020-10-18 23:19:43.750
-6,48,12,21,-40,-94,-77,-20,2020-10-18 23:19:43.755
-6,48,12,21,-40,-94,-77,-20,2020-10-18 23:19:43.761
-5,-12,7,17,7,-15,-70,-13,2020-10-18 23:19:43.768
-5,-12,7,17,7,-15,-70,-13,2020-10-18 23:19:43.773
-5,-12,7,17,7,-15,-70,-13,2020-10-18 23:19:43.778
-6,6,-10,-14,4,54,45,0,2020-10-18 23:19:43.790
-3,-2,-7,-5,0,-11,-20,-2,2020-10-18 23:19:43.795
-3,-2,-7,-5,0,-11,-20,-2,2020-10-18 23:19:43.801
-16,-35,-14,-1,-2,-7,-18,-14,2020-10-18 23:19:43.806
-3,-7,1,9,6,-25,33,6,2020-10-18 23:19:43.812
-3,-7,1,9,6,-25,33,6,2020-10-18 23:19:43.817
-3,-7,1,9,6,-25,33,6,2020-10-18 23:19:43.823
11,36,4,-6,1,0,-20,3,2020-10-18 23:19:43.828
11,36,4,-6,1,0,-20,3,2020-10-18 23:19:43.834
-6,-1,5,-15,3,-21,-20,-5,2020-10-18 23:19:43.840
-6,-1,5,-15,3,-21,-20,-5,2020-10-18 23:19:43.845
3,0,2,-3,18,94,81,17,2020-10-18 23:19:43.850
3,0,2,-3,18,94,81,17,2020-10-18 23:19:43.857
8,4,3,13,-3,-23,8,7,2020-10-18 23:19:43.861
8,4,3,13,-3,-23,8,7,2020-10-18 23:19:43.867
-3,-22,-13,-17,-1,-16,29,3,2020-10-18 23:19:43.872
-3,-22,-13,-17,-1,-16,29,3,2020-10-18 23:19:43.878
-3,-22,-13,-17,-1,-16,29,3,2020-10-18 23:19:43.885
2,-12,-1,5,5,83,57,9,2020-10-18 23:19:43.891
2,-12,-1,5,5,83,57,9,2020-10-18 23:19:43.896
0,13,-6,-19,-6,-64,-51,-7,2020-10-18 23:19:43.902
-10,-13,11,-3,6,12,-43,-9,2020-10-18 23:19:43.908
-10,-13,11,-3,6,12,-43,-9,2020-10-18 23:19:43.913
-10,-13,11,-3,6,12,-43,-9,2020-10-18 23:19:43.919
-2,-11,-13,7,16,85,32,8,2020-10-18 23:19:43.925
-4,-8,-1,-24,2,6,12,-4,2020-10-18 23:19:43.930
-4,-8,-1,-24,2,6,12,-4,2020-10-18 23:19:43.935
-4,-8,-1,-24,2,6,12,-4,2020-10-18 23:19:43.942
-4,-20,1,12,33,87,66,17,2020-10-18 23:19:43.948
-4,-20,1,12,33,87,66,17,2020-10-18 23:19:43.953
-2,24,5,10,9,-21,-62,-8,2020-10-18 23:19:43.958
-2,24,5,10,9,-21,-62,-8,2020-10-18 23:19:43.966
6,27,7,-3,14,-28,15,-1,2020-10-18 23:19:43.970
6,27,7,-3,14,-28,15,-1,2020-10-18 23:19:43.976
6,27,7,-3,14,-28,15,-1,2020-10-18 23:19:43.983
8,-15,-15,14,28,127,127,21,2020-10-18 23:19:43.988
-4,11,8,17,-6,-8,4,-3,2020-10-18 23:19:43.993
-4,11,8,17,-6,-8,4,-3,2020-10-18 23:19:43.999
-4,11,8,17,-6,-8,4,-3,2020-10-18 23:19:44.005
-6,-11,-7,6,-22,-29,-40,-16,2020-10-18 23:19:44.010
-6,-11,-7,6,-22,-29,-40,-16,2020-10-18 23:19:44.016
10,7,-2,6,8,49,85,23,2020-10-18 23:19:44.022
-5,-3,-2,7,-6,-29,-72,-14,2020-10-18 23:19:44.028
-5,-3,-2,7,-6,-29,-72,-14,2020-10-18 23:19:44.034
-5,-3,-2,7,-6,-29,-72,-14,2020-10-18 23:19:44.039
1,-7,-9,8,-5,-35,-39,-6,2020-10-18 23:19:44.045
-2,0,1,4,-4,-50,-3,-3,2020-10-18 23:19:44.051
-2,0,1,4,-4,-50,-3,-3,2020-10-18 23:19:44.056
-2,0,1,4,-4,-50,-3,-3,2020-10-18 23:19:44.061
10,13,-7,-2,0,53,30,9,2020-10-18 23:19:44.067
10,13,-7,-2,0,53,30,9,2020-10-18 23:19:44.073
-6,9,6,0,-30,-111,-11,-4,2020-10-18 23:19:44.078
-6,9,6,0,-30,-111,-11,-4,2020-10-18 23:19:44.086
-2,-25,-8,-3,-4,-32,-11,-2,2020-10-18 23:19:44.090
-2,-25,-8,-3,-4,-32,-11,-2,2020-10-18 23:19:44.096
-2,-25,-8,-3,-4,-32,-11,-2,2020-10-18 23:19:44.107
1,-11,-11,1,0,-11,10,1,2020-10-18 23:19:44.112
1,-11,-11,1,0,-11,10,1,2020-10-18 23:19:44.118
-5,6,3,0,-20,-14,5,-12,2020-10-18 23:19:44.123
-5,6,3,0,-20,-14,5,-12,2020-10-18 23:19:44.129
-3,-3,1,-14,-26,-61,-46,-9,2020-10-18 23:19:44.135
3,11,-5,-18,1,-18,-7,1,2020-10-18 23:19:44.140
3,11,-5,-18,1,-18,-7,1,2020-10-18 23:19:44.145
6,16,-12,0,-1,-2,20,12,2020-10-18 23:19:44.151
6,16,-12,0,-1,-2,20,12,2020-10-18 23:19:44.157
-4,-20,5,12,10,50,51,6,2020-10-18 23:19:44.163
-9,11,-10,-2,-13,-34,10,-7,2020-10-18 23:19:44.168
-1,-11,1,-17,1,-26,-27,-4,2020-10-18 23:19:44.174
-1,-11,1,-17,1,-26,-27,-4,2020-10-18 23:19:44.180
4,1,-4,7,8,-2,-22,2,2020-10-18 23:19:44.185
-5,0,-3,19,7,-9,26,-5,2020-10-18 23:19:44.191
-5,0,-3,19,7,-9,26,-5,2020-10-18 23:19:44.196
-5,0,-3,19,7,-9,26,-5,2020-10-18 23:19:44.203
-8,-28,-10,10,2,-4,-20,-9,2020-10-18 23:19:44.208
3,-10,-1,4,-10,30,35,6,2020-10-18 23:19:44.213
3,-10,-1,4,-10,30,35,6,2020-10-18 23:19:44.219
2,11,6,13,7,-12,17,3,2020-10-18 23:19:44.225
2,2,-3,-15,2,-49,-71,-8,2020-10-18 23:19:44.231
2,2,-3,-15,2,-49,-71,-8,2020-10-18 23:19:44.236
2,2,-3,-15,2,-49,-71,-8,2020-10-18 23:19:44.242
-2,14,2,-3,-11,-39,-29,-3,2020-10-18 23:19:44.249
-2,14,2,-3,-11,-39,-29,-3,2020-10-18 23:19:44.254
17,33,10,9,-4,-23,-83,3,2020-10-18 23:19:44.259
17,33,10,9,-4,-23,-83,3,2020-10-18 23:19:44.266
-11,-25,-1,33,6,1,-48,-8,2020-10-18 23:19:44.272
-11,-25,-1,33,6,1,-48,-8,2020-10-18 23:19:44.277
1,6,-3,-15,-2,-51,-33,-6,2020-10-18 23:19:44.284
10,33,16,10,-1,104,84,16,2020-10-18 23:19:44.289
10,33,16,10,-1,104,84,16,2020-10-18 23:19:44.295
10,33,16,10,-1,104,84,16,2020-10-18 23:19:44.301
-6,-1,3,-13,5,-19,36,1,2020-10-18 23:19:44.307
-6,-1,3,-13,5,-19,36,1,2020-10-18 23:19:44.313
-6,-1,3,-13,5,-19,36,1,2020-10-18 23:19:44.319
0,8,9,-5,0,8,16,-1,2020-10-18 23:19:44.324
2,1,3,-7,-6,-1,-16,1,2020-10-18 23:19:44.330
2,1,3,-7,-6,-1,-16,1,2020-10-18 23:19:44.336
2,1,3,-7,-6,-1,-16,1,2020-10-18 23:19:44.342
-13,-12,3,8,-1,13,-3,-4,2020-10-18 23:19:44.347
0,17,-12,2,4,-5,-26,-5,2020-10-18 23:19:44.353
0,17,-12,2,4,-5,-26,-5,2020-10-18 23:19:44.358
0,17,-12,2,4,-5,-26,-5,2020-10-18 23:19:44.364
-5,4,-6,-12,-10,-38,-19,-8,2020-10-18 23:19:44.370
-5,4,-6,-12,-10,-38,-19,-8,2020-10-18 23:19:44.375
3,0,1,12,16,51,50,4,2020-10-18 23:19:44.381
3,0,1,12,16,51,50,4,2020-10-18 23:19:44.386
-9,-11,-3,-2,4,16,-24,-3,2020-10-18 23:19:44.391
-9,-11,-3,-2,4,16,-24,-3,2020-10-18 23:19:44.397
0,14,0,-3,-4,-47,-51,-6,2020-10-18 23:19:44.403
-2,-13,5,-7,22,-24,-52,-7,2020-10-18 23:19:44.409
-2,-13,5,-7,22,-24,-52,-7,2020-10-18 23:19:44.413
-2,-13,5,-7,22,-24,-52,-7,2020-10-18 23:19:44.425
1,-8,-9,-11,8,22,38,5,2020-10-18 23:19:44.431
1,-8,-9,-11,8,22,38,5,2020-10-18 23:19:44.437
10,2,3,3,11,21,-4,9,2020-10-18 23:19:44.442
-4,7,13,-4,-17,-11,-67,-8,2020-10-18 23:19:44.449
-4,7,13,-4,-17,-11,-67,-8,2020-10-18 23:19:44.454
-4,7,13,-4,-17,-11,-67,-8,2020-10-18 23:19:44.460
13,-1,2,-1,3,75,95,23,2020-10-18 23:19:44.466
-21,-38,6,13,13,37,47,-3,2020-10-18 23:19:44.472
-21,-38,6,13,13,37,47,-3,2020-10-18 23:19:44.479
-21,-38,6,13,13,37,47,-3,2020-10-18 23:19:44.485
-6,-1,2,2,0,-24,-29,-4,2020-10-18 23:19:44.490
18,18,2,-1,6,78,93,28,2020-10-18 23:19:44.496
-6,-29,0,-5,9,-35,13,-4,2020-10-18 23:19:44.503
0,-1,-13,-10,-24,-75,-81,-15,2020-10-18 23:19:44.508
0,-1,-13,-10,-24,-75,-81,-15,2020-10-18 23:19:44.513
0,-1,-13,-10,-24,-75,-81,-15,2020-10-18 23:19:44.519
-2,9,3,-8,1,8,-41,-5,2020-10-18 23:19:44.525
2,-4,-2,0,-6,-32,-28,-2,2020-10-18 23:19:44.530
2,-4,-2,0,-6,-32,-28,-2,2020-10-18 23:19:44.536
2,-4,-2,0,-6,-32,-28,-2,2020-10-18 23:19:44.542
2,-4,-2,0,-6,-32,-28,-2,2020-10-18 23:19:44.547
-1,-14,-9,0,2,50,-6,0,2020-10-18 23:19:44.553
-5,-15,4,7,0,-10,-34,-7,2020-10-18 23:19:44.558
3,0,-7,-3,-31,-93,-82,-10,2020-10-18 23:19:44.564
5,-2,-10,-3,0,-15,27,5,2020-10-18 23:19:44.570
5,-2,-10,-3,0,-15,27,5,2020-10-18 23:19:44.575
5,-2,-10,-3,0,-15,27,5,2020-10-18 23:19:44.581
-14,-11,-7,-19,-16,67,28,-4,2020-10-18 23:19:44.587
2,11,2,-4,2,-1,26,9,2020-10-18 23:19:44.593
2,11,2,-4,2,-1,26,9,2020-10-18 23:19:44.598
2,11,2,-4,2,-1,26,9,2020-10-18 23:19:44.604
1,-7,-3,-4,-3,-6,23,2,2020-10-18 23:19:44.610
8,14,9,-5,-5,-11,0,0,2020-10-18 23:19:44.616
8,14,9,-5,-5,-11,0,0,2020-10-18 23:19:44.622
8,14,9,-5,-5,-11,0,0,2020-10-18 23:19:44.627
4,5,2,-4,4,-4,-5,0,2020-10-18 23:19:44.632
4,5,2,-4,4,-4,-5,0,2020-10-18 23:19:44.637
-2,8,-4,-1,-4,-121,-117,-17,2020-10-18 23:19:44.644
-2,8,-4,-1,-4,-121,-117,-17,2020-10-18 23:19:44.650
-9,-16,-4,33,34,40,40,2,2020-10-18 23:19:44.655
-9,-16,-4,33,34,40,40,2,2020-10-18 23:19:44.661
2,9,-2,5,10,-25,-5,0,2020-10-18 23:19:44.667
-1,-2,3,-6,-19,-49,-30,-7,2020-10-18 23:19:44.672
-1,-2,3,-6,-19,-49,-30,-7,2020-10-18 23:19:44.678
-1,-2,3,-6,-19,-49,-30,-7,2020-10-18 23:19:44.684
-12,-37,-7,-2,-8,-44,-54,-13,2020-10-18 23:19:44.690
-12,-37,-7,-2,-8,-44,-54,-13,2020-10-18 23:19:44.695
-12,-37,-7,-2,-8,-44,-54,-13,2020-10-18 23:19:44.701
-4,-10,-12,-11,-6,-12,9,-1,2020-10-18 23:19:44.707
0,12,-5,-15,-6,-45,-19,-4,2020-10-18 23:19:44.712
0,12,-5,-15,-6,-45,-19,-4,2020-10-18 23:19:44.718
0,12,-5,-15,-6,-45,-19,-4,2020-10-18 23:19:44.723
2,1,7,9,-2,12,5,2,2020-10-18 23:19:44.729
4,7,3,-1,-7,2,-10,1,2020-10-18 23:19:44.735
4,7,3,-1,-7,2,-10,1,2020-10-18 23:19:44.741
4,7,3,-1,-7,2,-10,1,2020-10-18 23:19:44.746
2,1,6,11,8,-9,1,3,2020-10-18 23:19:44.757
0,5,-4,2,2,-25,-1,-5,2020-10-18 23:19:44.763
0,5,-4,2,2,-25,-1,-5,2020-10-18 23:19:44.769
2,-5,0,-5,-1,23,20,4,2020-10-18 23:19:44.774
2,-5,0,-5,-1,23,20,4,2020-10-18 23:19:44.780
1,-11,-3,1,-2,-28,-30,-5,2020-10-18 23:19:44.786
-1,26,-4,-21,-21,25,13,1,2020-10-18 23:19:44.791
-1,26,-4,-21,-21,25,13,1,2020-10-18 23:19:44.797
-1,26,-4,-21,-21,25,13,1,2020-10-18 23:19:44.803
-3,-11,1,1,2,9,2,0,2020-10-18 23:19:44.808
0,2,-5,-6,-4,8,-12,-3,2020-10-18 23:19:44.814
0,2,-5,-6,-4,8,-12,-3,2020-10-18 23:19:44.819
0,2,-5,-6,-4,8,-12,-3,2020-10-18 23:19:44.825
3,-1,1,1,6,1,9,4,2020-10-18 23:19:44.830
4,3,5,4,0,20,14,2,2020-10-18 23:19:44.836
4,3,5,4,0,20,14,2,2020-10-18 23:19:44.841
-2,-5,4,-1,-1,-6,2,0,2020-10-18 23:19:44.847
-5,-14,-2,-4,-3,-2,29,-4,2020-10-18 23:19:44.853
-5,-14,-2,-4,-3,-2,29,-4,2020-10-18 23:19:44.858
-5,-14,-2,-4,-3,-2,29,-4,2020-10-18 23:19:44.864
2,-6,-2,-3,3,-1,8,7,2020-10-18 23:19:44.870
2,-6,-2,-3,3,-1,8,7,2020-10-18 23:19:44.876
0,5,2,8,4,15,18,4,2020-10-18 23:19:44.882
0,5,2,8,4,15,18,4,2020-10-18 23:19:44.888
-1,15,2,3,-12,1,-7,0,2020-10-18 23:19:44.893
-1,15,2,3,-12,1,-7,0,2020-10-18 23:19:44.898
-1,15,2,3,-12,1,-7,0,2020-10-18 23:19:44.904
-2,-9,0,24,5,9,-5,3,2020-10-18 23:19:44.909
0,-14,-3,5,-5,25,10,5,2020-10-18 23:19:44.915
0,-14,-3,5,-5,25,10,5,2020-10-18 23:19:44.921
0,-14,-3,5,-5,25,10,5,2020-10-18 23:19:44.926
-2,-4,-4,-3,8,-7,-5,-5,2020-10-18 23:19:44.932
-2,-4,-4,-3,8,-7,-5,-5,2020-10-18 23:19:44.938
1,-5,-2,-10,-2,-13,-29,2,2020-10-18 23:19:44.944
1,-5,-2,-10,-2,-13,-29,2,2020-10-18 23:19:44.949
1,-5,-2,-10,-2,-13,-29,2,2020-10-18 23:19:44.955
2,0,3,1,3,1,24,3,2020-10-18 23:19:44.960
-1,-2,-4,-9,3,-3,0,-1,2020-10-18 23:19:44.966
-1,-2,-4,-9,3,-3,0,-1,2020-10-18 23:19:44.972
-1,-2,-4,-9,3,-3,0,-1,2020-10-18 23:19:44.977
0,-2,-1,0,2,10,-7,-3,2020-10-18 23:19:44.984
-2,-3,-4,-2,3,-18,-21,-3,2020-10-18 23:19:44.989
-2,-3,-4,-2,3,-18,-21,-3,2020-10-18 23:19:44.995
-2,-3,-4,-2,3,-18,-21,-3,2020-10-18 23:19:45.001
-4,0,-3,0,-2,-10,-19,-5,2020-10-18 23:19:45.006
-2,-1,-1,-3,0,-5,-14,-2,2020-10-18 23:19:45.012
-2,-1,-1,-3,0,-5,-14,-2,2020-10-18 23:19:45.017
-2,-1,-1,-3,0,-5,-14,-2,2020-10-18 23:19:45.023
0,-1,1,3,-4,9,-2,0,2020-10-18 23:19:45.029
1,-9,-2,2,-2,10,12,4,2020-10-18 23:19:45.035
1,-9,-2,2,-2,10,12,4,2020-10-18 23:19:45.042
0,-5,-1,1,-2,22,20,4,2020-10-18 23:19:45.047
-1,0,1,2,1,1,0,-3,2020-10-18 23:19:45.053
-1,0,1,2,1,1,0,-3,2020-10-18 23:19:45.058
3,-2,-1,14,7,-15,-9,3,2020-10-18 23:19:45.064
3,-2,-1,14,7,-15,-9,3,2020-10-18 23:19:45.070
-1,-1,2,8,2,6,-1,0,2020-10-18 23:19:45.075
-1,-1,2,8,2,6,-1,0,2020-10-18 23:19:45.087
1,1,2,2,1,-5,-5,0,2020-10-18 23:19:45.092
1,1,2,2,1,-5,-5,0,2020-10-18 23:19:45.097
1,1,2,2,1,-5,-5,0,2020-10-18 23:19:45.104
0,4,-2,-11,0,0,-3,0,2020-10-18 23:19:45.110
0,4,-2,-11,0,0,-3,0,2020-10-18 23:19:45.115
0,4,-2,-11,0,0,-3,0,2020-10-18 23:19:45.121
-2,1,-5,-12,0,0,1,-2,2020-10-18 23:19:45.126
-6,-2,-5,-4,-1,-1,-1,-9,2020-10-18 23:19:45.132
-6,-2,-5,-4,-1,-1,-1,-9,2020-10-18 23:19:45.139
-2,-2,-3,-2,1,-3,-1,-4,2020-10-18 23:19:45.144
-2,-2,-3,-2,1,-3,-1,-4,2020-10-18 23:19:45.151
0,0,-1,-1,-1,-1,-1,2,2020-10-18 23:19:45.156
0,0,-1,-1,-1,-1,-1,2,2020-10-18 23:19:45.161
0,0,-1,-1,-1,-1,-1,2,2020-10-18 23:19:45.167
-1,-3,-1,-7,0,2,-2,-1,2020-10-18 23:19:45.173
-1,-3,-1,-7,0,2,-2,-1,2020-10-18 23:19:45.177
1,-1,0,0,0,-2,-1,3,2020-10-18 23:19:45.184
-3,-1,-1,1,-2,0,-2,-3,2020-10-18 23:19:45.190
1,-1,2,8,-1,-2,-2,1,2020-10-18 23:19:45.195
1,-1,2,8,-1,-2,-2,1,2020-10-18 23:19:45.202
2,1,-1,-2,2,2,3,2,2020-10-18 23:19:45.207
1,0,-2,-5,-1,-1,1,0,2020-10-18 23:19:45.212
1,0,-2,-5,-1,-1,1,0,2020-10-18 23:19:45.218
1,0,-2,-5,-1,-1,1,0,2020-10-18 23:19:45.224
-2,3,9,2,2,-2,0,0,2020-10-18 23:19:45.230
-2,3,9,2,2,-2,0,0,2020-10-18 23:19:45.236
1,-4,-5,-9,-1,-4,-1,-4,2020-10-18 23:19:45.241
1,-4,-5,-9,-1,-4,-1,-4,2020-10-18 23:19:45.247
-2,3,-3,-2,1,-1,0,-2,2020-10-18 23:19:45.253
-2,3,-3,-2,1,-1,0,-2,2020-10-18 23:19:45.259
-1,0,4,9,-3,0,-2,-1,2020-10-18 23:19:45.265
-1,0,4,9,-3,0,-2,-1,2020-10-18 23:19:45.271
0,-1,-8,-6,0,1,-1,0,2020-10-18 23:19:45.275
0,-1,-8,-6,0,1,-1,0,2020-10-18 23:19:45.281
0,-1,-8,-6,0,1,-1,0,2020-10-18 23:19:45.287
-3,-4,-5,-27,-7,-4,-1,0,2020-10-18 23:19:45.292
-3,-4,-5,-27,-7,-4,-1,0,2020-10-18 23:19:45.298
-4,-4,-5,-4,1,-1,-2,-3,2020-10-18 23:19:45.305
0,-4,1,8,0,2,0,-1,2020-10-18 23:19:45.309
0,-4,1,8,0,2,0,-1,2020-10-18 23:19:45.315
0,-4,1,8,0,2,0,-1,2020-10-18 23:19:45.321
0,0,-1,-8,0,-2,-2,-1,2020-10-18 23:19:45.327
-1,0,0,3,2,0,-3,-2,2020-10-18 23:19:45.332
-1,0,0,3,2,0,-3,-2,2020-10-18 23:19:45.338
-1,0,0,3,2,0,-3,-2,2020-10-18 23:19:45.343
1,-2,3,19,-3,0,1,1,2020-10-18 23:19:45.350
1,-2,3,19,-3,0,1,1,2020-10-18 23:19:45.355
1,-2,3,19,-3,0,1,1,2020-10-18 23:19:45.361
-1,0,1,-3,0,0,-1,-1,2020-10-18 23:19:45.367
0,-1,3,17,2,1,-1,0,2020-10-18 23:19:45.373
0,-1,3,17,2,1,-1,0,2020-10-18 23:19:45.378
0,-1,3,17,2,1,-1,0,2020-10-18 23:19:45.385
4,0,0,1,-2,-2,0,3,2020-10-18 23:19:45.390
3,-8,-3,2,5,-1,-2,2,2020-10-18 23:19:45.396
3,-8,-3,2,5,-1,-2,2,2020-10-18 23:19:45.402
2,7,1,3,-5,-2,0,1,2020-10-18 23:19:45.408
-3,1,-1,-5,-1,-1,0,-4,2020-10-18 23:19:45.419
3,2,5,2,-2,1,-2,1,2020-10-18 23:19:45.424
-2,3,-1,2,-2,0,-3,-3,2020-10-18 23:19:45.429
-4,-5,-6,-8,-3,-1,-1,-4,2020-10-18 23:19:45.435
-4,-5,-6,-8,-3,-1,-1,-4,2020-10-18 23:19:45.442
-1,-2,0,9,0,0,0,-1,2020-10-18 23:19:45.447
-1,-1,3,8,-4,-1,-1,0,2020-10-18 23:19:45.453
-1,-1,3,8,-4,-1,-1,0,2020-10-18 23:19:45.459
-1,-1,3,8,-4,-1,-1,0,2020-10-18 23:19:45.465
1,-2,-4,-2,-1,-1,2,1,2020-10-18 23:19:45.470
-2,4,4,-2,0,-1,-2,-2,2020-10-18 23:19:45.476
-2,-4,-5,-11,-5,-2,-3,1,2020-10-18 23:19:45.482
-2,-4,-5,-11,-5,-2,-3,1,2020-10-18 23:19:45.487
-1,1,-3,-9,-1,-2,2,-3,2020-10-18 23:19:45.493
-1,1,-3,-9,-1,-2,2,-3,2020-10-18 23:19:45.498
-1,1,-3,-9,-1,-2,2,-3,2020-10-18 23:19:45.505
-2,-2,2,-2,0,1,-1,-1,2020-10-18 23:19:45.510
3,18,2,-2,-1,-2,-1,2,2020-10-18 23:19:45.516
3,18,2,-2,-1,-2,-1,2,2020-10-18 23:19:45.522
-6,-3,-5,3,-2,-2,1,-2,2020-10-18 23:19:45.528
-6,-3,-5,3,-2,-2,1,-2,2020-10-18 23:19:45.534
-7,-10,-4,-3,-1,0,-4,-4,2020-10-18 23:19:45.539
-7,-10,-4,-3,-1,0,-4,-4,2020-10-18 23:19:45.545
1,0,2,1,0,0,0,0,2020-10-18 23:19:45.551
3,0,-1,-3,0,0,1,4,2020-10-18 23:19:45.556
3,0,-1,-3,0,0,1,4,2020-10-18 23:19:45.562
1,0,-2,-2,-1,-1,-3,-1,2020-10-18 23:19:45.568
-1,-5,0,1,0,-1,0,0,2020-10-18 23:19:45.573
-1,-5,0,1,0,-1,0,0,2020-10-18 23:19:45.578
-1,-5,0,1,0,-1,0,0,2020-10-18 23:19:45.585
-4,0,4,0,-1,-1,-3,-4,2020-10-18 23:19:45.591
-1,-2,-1,-4,0,0,-1,1,2020-10-18 23:19:45.596
-1,-2,-1,-4,0,0,-1,1,2020-10-18 23:19:45.603
-1,-2,-1,-4,0,0,-1,1,2020-10-18 23:19:45.608
1,-1,-2,0,-1,-1,0,1,2020-10-18 23:19:45.614
1,-1,-2,0,-1,-1,0,1,2020-10-18 23:19:45.621
-2,-1,0,-1,-1,-2,-3,-3,2020-10-18 23:19:45.626
1,0,0,-2,4,1,-1,-1,2020-10-18 23:19:45.632
1,0,0,-2,4,1,-1,-1,2020-10-18 23:19:45.638
1,0,0,-2,4,1,-1,-1,2020-10-18 23:19:45.644
-3,2,1,0,0,-1,0,0,2020-10-18 23:19:45.649
-4,6,-1,0,-2,0,0,-3,2020-10-18 23:19:45.655
-4,6,-1,0,-2,0,0,-3,2020-10-18 23:19:45.661
-4,6,-1,0,-2,0,0,-3,2020-10-18 23:19:45.668
0,-1,-1,-1,-1,0,-2,-1,2020-10-18 23:19:45.674
0,-1,-1,-1,-1,0,-2,-1,2020-10-18 23:19:45.679
-1,4,0,-2,0,-2,-2,-2,2020-10-18 23:19:45.686
-4,-7,0,1,1,0,0,-3,2020-10-18 23:19:45.691
-4,-7,0,1,1,0,0,-3,2020-10-18 23:19:45.697
-4,-7,0,1,1,0,0,-3,2020-10-18 23:19:45.703
0,0,0,-1,1,0,-1,1,2020-10-18 23:19:45.709
0,2,3,12,-3,0,0,1,2020-10-18 23:19:45.713
0,2,3,12,-3,0,0,1,2020-10-18 23:19:45.719
0,2,3,12,-3,0,0,1,2020-10-18 23:19:45.726
3,-2,-1,0,-2,-4,-3,-1,2020-10-18 23:19:45.731
3,-2,-1,0,-2,-4,-3,-1,2020-10-18 23:19:45.737
3,-2,-1,0,-2,-4,-3,-1,2020-10-18 23:19:45.743
0,0,-1,6,1,-1,-1,1,2020-10-18 23:19:45.749
1,-3,-1,2,-2,0,1,1,2020-10-18 23:19:45.755
1,-3,-1,2,-2,0,1,1,2020-10-18 23:19:45.768
-3,-8,-3,-7,-2,-1,-1,0,2020-10-18 23:19:45.773
-3,-8,-3,-7,-2,-1,-1,0,2020-10-18 23:19:45.778
-3,-8,-3,-7,-2,-1,-1,0,2020-10-18 23:19:45.785
0,5,2,4,-3,6,2,0,2020-10-18 23:19:45.790
0,1,-4,-10,0,0,-1,-1,2020-10-18 23:19:45.795
0,1,-4,-10,0,0,-1,-1,2020-10-18 23:19:45.803
-3,-8,-3,-4,-1,-6,-4,-1,2020-10-18 23:19:45.808
3,9,3,0,-2,-1,0,0,2020-10-18 23:19:45.814
3,9,3,0,-2,-1,0,0,2020-10-18 23:19:45.820
3,9,3,0,-2,-1,0,0,2020-10-18 23:19:45.825
-1,4,1,1,1,13,3,0,2020-10-18 23:19:45.831
6,2,1,2,-2,0,0,2,2020-10-18 23:19:45.836
6,2,1,2,-2,0,0,2,2020-10-18 23:19:45.842
6,2,1,2,-2,0,0,2,2020-10-18 23:19:45.848
0,-5,-1,-4,0,-5,1,1,2020-10-18 23:19:45.854
0,-5,-1,-4,0,-5,1,1,2020-10-18 23:19:45.860
0,-5,5,25,6,1,2,3,2020-10-18 23:19:45.865
0,-5,5,25,6,1,2,3,2020-10-18 23:19:45.871
0,-5,5,25,6,1,2,3,2020-10-18 23:19:45.876
-2,6,-3,0,-1,-3,-3,-3,2020-10-18 23:19:45.883
0,2,0,-1,-2,-1,-1,-1,2020-10-18 23:19:45.888
-3,-3,-4,-4,0,0,-1,-2,2020-10-18 23:19:45.894
-3,-3,-4,-4,0,0,-1,-2,2020-10-18 23:19:45.899
-3,-3,-4,-4,0,0,-1,-2,2020-10-18 23:19:45.905
0,3,1,-6,-3,-6,0,1,2020-10-18 23:19:45.911
-1,-4,-2,-5,0,3,-3,-2,2020-10-18 23:19:45.917
-1,-4,-2,-5,0,3,-3,-2,2020-10-18 23:19:45.923
-3,-6,-7,-22,0,-4,-3,-5,2020-10-18 23:19:45.928
-2,-5,-1,2,2,-10,-3,-3,2020-10-18 23:19:45.934
-2,-5,-1,2,2,-10,-3,-3,2020-10-18 23:19:45.939
-2,-5,-1,2,2,-10,-3,-3,2020-10-18 23:19:45.945
-5,-2,-2,-3,-2,-3,-3,-3,2020-10-18 23:19:45.951
-1,-1,-2,-7,-2,0,-1,-1,2020-10-18 23:19:45.957
-1,-1,-2,-7,-2,0,-1,-1,2020-10-18 23:19:45.962
-1,-1,-2,-7,-2,0,-1,-1,2020-10-18 23:19:45.968
-3,-5,-2,5,-3,0,0,2,2020-10-18 23:19:45.974
-3,-5,-2,5,-3,0,0,2,2020-10-18 23:19:45.979
1,-4,-1,0,-2,0,2,1,2020-10-18 23:19:45.985
1,-4,-1,0,-2,0,2,1,2020-10-18 23:19:45.991
5,7,7,29,5,13,7,8,2020-10-18 23:19:45.997
5,7,7,29,5,13,7,8,2020-10-18 23:19:46.003
0,-5,0,-5,-2,0,-2,-3,2020-10-18 23:19:46.009
0,1,-3,-9,0,-1,0,-1,2020-10-18 23:19:46.014
0,1,-3,-9,0,-1,0,-1,2020-10-18 23:19:46.021
0,1,-3,-9,0,-1,0,-1,2020-10-18 23:19:46.026
2,-3,-2,-6,2,4,1,0,2020-10-18 23:19:46.031
2,-3,-2,-6,2,4,1,0,2020-10-18 23:19:46.037
2,-3,-2,-6,2,4,1,0,2020-10-18 23:19:46.043
0,-1,-4,-7,-2,-1,-1,-1,2020-10-18 23:19:46.048
-2,-3,0,-6,-1,-3,-1,-1,2020-10-18 23:19:46.055
-2,-3,0,-6,-1,-3,-1,-1,2020-10-18 23:19:46.061
-2,-3,0,-6,-1,-3,-1,-1,2020-10-18 23:19:46.067
-1,-4,-3,4,1,-4,-2,-2,2020-10-18 23:19:46.073
-5,-5,-3,-10,-3,-4,-3,-5,2020-10-18 23:19:46.078
-5,-5,-3,-10,-3,-4,-3,-5,2020-10-18 23:19:46.085
-2,-2,-2,2,-1,3,0,-1,2020-10-18 23:19:46.090
0,1,0,-5,-3,-2,-5,-3,2020-10-18 23:19:46.096
0,1,0,-5,-3,-2,-5,-3,2020-10-18 23:19:46.102
-6,-6,-2,-4,-3,1,-1,-4,2020-10-18 23:19:46.113
-4,2,2,2,-1,-1,-1,0,2020-10-18 23:19:46.119
-4,2,2,2,-1,-1,-1,0,2020-10-18 23:19:46.125
4,7,2,2,0,2,0,1,2020-10-18 23:19:46.130
1,4,-3,2,-1,0,1,1,2020-10-18 23:19:46.137
1,4,-3,2,-1,0,1,1,2020-10-18 23:19:46.142
1,4,-3,2,-1,0,1,1,2020-10-18 23:19:46.147
-3,-2,-1,-1,-1,-1,-1,-2,2020-10-18 23:19:46.153
-3,-2,-1,-1,-1,-1,-1,-2,2020-10-18 23:19:46.159
1,-1,-2,0,0,0,1,-1,2020-10-18 23:19:46.164
1,-1,-2,0,0,0,1,-1,2020-10-18 23:19:46.170
1,4,0,-2,2,15,5,0,2020-10-18 23:19:46.176
1,4,0,-2,2,15,5,0,2020-10-18 23:19:46.182
-6,-12,-2,1,1,0,-1,-2,2020-10-18 23:19:46.188
-3,-5,-1,-4,0,-6,-3,-2,2020-10-18 23:19:46.194
-3,-5,-1,-4,0,-6,-3,-2,2020-10-18 23:19:46.199
-3,-5,-1,-4,0,-6,-3,-2,2020-10-18 23:19:46.205
-3,-5,-1,-4,0,-6,-3,-2,2020-10-18 23:19:46.211
-3,-5,-1,-4,0,-6,-3,-2,2020-10-18 23:19:46.217
-3,-2,-4,0,3,-3,-4,-2,2020-10-18 23:19:46.223
2,2,-3,-2,-2,-5,-1,0,2020-10-18 23:19:46.229
1,-2,2,1,-2,-3,0,0,2020-10-18 23:19:46.235
1,-2,2,1,-2,-3,0,0,2020-10-18 23:19:46.241
1,-2,2,1,-2,-3,0,0,2020-10-18 23:19:46.246
-4,-3,-6,-13,0,-1,-3,-1,2020-10-18 23:19:46.252
2,4,-1,0,-2,-3,1,2,2020-10-18 23:19:46.257
2,4,-1,0,-2,-3,1,2,2020-10-18 23:19:46.263
2,4,-1,0,-2,-3,1,2,2020-10-18 23:19:46.269
-3,-4,-1,-1,0,-3,-2,0,2020-10-18 23:19:46.274
-3,-4,-1,-1,0,-3,-2,0,2020-10-18 23:19:46.280
1,0,1,1,0,1,2,2,2020-10-18 23:19:46.286
1,0,1,1,0,1,2,2,2020-10-18 23:19:46.292
1,2,0,1,-2,7,1,-1,2020-10-18 23:19:46.297
1,2,0,1,-2,7,1,-1,2020-10-18 23:19:46.303
-1,3,1,-1,-2,-2,-2,1,2020-10-18 23:19:46.309
-1,-5,-4,-3,-1,-4,-1,0,2020-10-18 23:19:46.314
-1,-5,-4,-3,-1,-4,-1,0,2020-10-18 23:19:46.321
-1,-5,-4,-3,-1,-4,-1,0,2020-10-18 23:19:46.327
1,7,3,3,-4,-2,-2,-2,2020-10-18 23:19:46.331
1,7,3,3,-4,-2,-2,-2,2020-10-18 23:19:46.337
1,7,3,3,-4,-2,-2,-2,2020-10-18 23:19:46.342
-2,-2,0,4,6,-20,-21,-1,2020-10-18 23:19:46.348
2,9,0,2,-5,-6,-3,-1,2020-10-18 23:19:46.353
2,9,0,2,-5,-6,-3,-1,2020-10-18 23:19:46.359
2,9,0,2,-5,-6,-3,-1,2020-10-18 23:19:46.364
-1,-2,-2,-4,3,3,-1,0,2020-10-18 23:19:46.371
2,-3,-2,-3,2,4,1,0,2020-10-18 23:19:46.376
2,-3,-2,-3,2,4,1,0,2020-10-18 23:19:46.382
2,-3,-2,-3,2,4,1,0,2020-10-18 23:19:46.388
1,-4,0,7,-11,-8,2,0,2020-10-18 23:19:46.393
-4,7,0,-16,-27,0,8,-2,2020-10-18 23:19:46.399
0,-4,-2,1,3,27,-3,3,2020-10-18 23:19:46.404
0,-4,-2,1,3,27,-3,3,2020-10-18 23:19:46.410
2,-17,-3,-7,24,29,13,5,2020-10-18 23:19:46.415
2,-17,-3,-7,24,29,13,5,2020-10-18 23:19:46.422
2,11,-2,-28,-34,-19,-16,-3,2020-10-18 23:19:46.427
2,11,-2,-28,-34,-19,-16,-3,2020-10-18 23:19:46.432
-14,-20,-3,31,40,-34,-30,-11,2020-10-18 23:19:46.439
-14,-20,-3,31,40,-34,-30,-11,2020-10-18 23:19:46.445
-3,-5,-4,50,42,-3,8,1,2020-10-18 23:19:46.452
7,24,-2,-20,-16,-25,13,2,2020-10-18 23:19:46.463
-12,-9,-17,-78,-63,11,6,-6,2020-10-18 23:19:46.469
-7,-21,-10,-17,-18,28,-5,4,2020-10-18 23:19:46.474
-7,-21,-10,-17,-18,28,-5,4,2020-10-18 23:19:46.480
-7,-21,-10,-17,-18,28,-5,4,2020-10-18 23:19:46.486
-7,-21,-10,-17,-18,28,-5,4,2020-10-18 23:19:46.492
-19,-4,9,28,15,-43,-56,-13,2020-10-18 23:19:46.497
-19,-4,9,28,15,-43,-56,-13,2020-10-18 23:19:46.504
-19,-4,9,28,15,-43,-56,-13,2020-10-18 23:19:46.509
-2,-8,14,12,4,-33,-8,1,2020-10-18 23:19:46.515
6,29,15,43,-3,-34,-34,-4,2020-10-18 23:19:46.521
6,29,15,43,-3,-34,-34,-4,2020-10-18 23:19:46.527
7,31,2,-35,10,78,91,18,2020-10-18 23:19:46.532
17,53,26,42,3,-35,-10,7,2020-10-18 23:19:46.538
17,53,26,42,3,-35,-10,7,2020-10-18 23:19:46.544
-4,23,16,-5,24,13,30,5,2020-10-18 23:19:46.550
-8,-25,-20,-51,-17,-33,-70,-21,2020-10-18 23:19:46.555
-8,-25,-20,-51,-17,-33,-70,-21,2020-10-18 23:19:46.561
-8,-25,-20,-51,-17,-33,-70,-21,2020-10-18 23:19:46.566
13,-41,-4,27,34,112,59,23,2020-10-18 23:19:46.573
-25,-1,17,8,-15,0,1,-7,2020-10-18 23:19:46.578
-25,-1,17,8,-15,0,1,-7,2020-10-18 23:19:46.584
-25,-1,17,8,-15,0,1,-7,2020-10-18 23:19:46.590
10,-8,-9,18,28,65,107,13,2020-10-18 23:19:46.595
10,-8,-9,18,28,65,107,13,2020-10-18 23:19:46.602
5,30,-6,-33,-12,-8,-48,0,2020-10-18 23:19:46.608
5,30,-6,-33,-12,-8,-48,0,2020-10-18 23:19:46.613
5,30,-6,-33,-12,-8,-48,0,2020-10-18 23:19:46.619
-9,-19,-14,-35,-12,101,39,1,2020-10-18 23:19:46.625
17,37,11,-1,-3,-20,11,6,2020-10-18 23:19:46.630
17,37,11,-1,-3,-20,11,6,2020-10-18 23:19:46.636
-15,-33,-6,-15,-5,-42,-18,-13,2020-10-18 23:19:46.642
-15,-33,-6,-15,-5,-42,-18,-13,2020-10-18 23:19:46.647
12,8,16,-7,2,3,30,9,2020-10-18 23:19:46.653
-3,-2,-3,-13,-9,13,-1,2,2020-10-18 23:19:46.659
-3,-2,-3,-13,-9,13,-1,2,2020-10-18 23:19:46.664
-12,-5,-7,-2,1,-9,-1,-9,2020-10-18 23:19:46.671
6,-8,-3,-4,-26,-18,0,4,2020-10-18 23:19:46.676
6,-8,-3,-4,-26,-18,0,4,2020-10-18 23:19:46.682
6,-8,-3,-4,-26,-18,0,4,2020-10-18 23:19:46.688
-2,-5,-5,7,36,26,23,0,2020-10-18 23:19:46.694
7,-8,-6,-2,7,-13,-14,3,2020-10-18 23:19:46.699
7,-8,-6,-2,7,-13,-14,3,2020-10-18 23:19:46.705
7,-8,-6,-2,7,-13,-14,3,2020-10-18 23:19:46.710
22,25,5,-3,0,-14,-8,12,2020-10-18 23:19:46.716
22,25,5,-3,0,-14,-8,12,2020-10-18 23:19:46.722
-10,-12,-8,11,1,-15,-22,-10,2020-10-18 23:19:46.727
-10,-12,-8,11,1,-15,-22,-10,2020-10-18 23:19:46.732
12,5,0,-3,-3,-12,9,5,2020-10-18 23:19:46.737
12,5,0,-3,-3,-12,9,5,2020-10-18 23:19:46.744
3,-13,-6,-8,-3,12,7,2,2020-10-18 23:19:46.749
3,-13,-6,-8,-3,12,7,2,2020-10-18 23:19:46.755
-13,-9,-4,0,0,8,-2,-10,2020-10-18 23:19:46.762
-13,-9,-4,0,0,8,-2,-10,2020-10-18 23:19:46.769
-2,1,-6,-2,7,0,-3,1,2020-10-18 23:19:46.774
-2,1,-6,-2,7,0,-3,1,2020-10-18 23:19:46.779
-2,1,-6,-2,7,0,-3,1,2020-10-18 23:19:46.786
-13,-4,-2,-4,-10,-11,-8,-14,2020-10-18 23:19:46.792
4,-1,0,0,4,10,9,1,2020-10-18 23:19:46.797
4,-1,0,0,4,10,9,1,2020-10-18 23:19:46.803
4,-1,0,0,4,10,9,1,2020-10-18 23:19:46.809
5,-2,1,-3,-1,7,4,8,2020-10-18 23:19:46.821
8,2,0,1,2,-6,-6,2,2020-10-18 23:19:46.827
-5,-3,-4,-6,-1,-3,-5,-3,2020-10-18 23:19:46.833
-1,1,3,1,1,-2,4,2,2020-10-18 23:19:46.838
-1,1,3,1,1,-2,4,2,2020-10-18 23:19:46.844
1,2,-3,-5,-2,1,1,-1,2020-10-18 23:19:46.850
-1,-5,-4,0,4,6,5,-2,2020-10-18 23:19:46.856
-1,-5,-4,0,4,6,5,-2,2020-10-18 23:19:46.862
-1,-5,-4,0,4,6,5,-2,2020-10-18 23:19:46.869
3,8,2,-2,-3,-1,1,0,2020-10-18 23:19:46.874
-2,-7,2,2,0,2,1,-1,2020-10-18 23:19:46.880
-2,-7,2,2,0,2,1,-1,2020-10-18 23:19:46.886
-2,-7,2,2,0,2,1,-1,2020-10-18 23:19:46.892
-13,-5,-5,-7,0,-3,-2,-6,2020-10-18 23:19:46.896
-13,-5,-5,-7,0,-3,-2,-6,2020-10-18 23:19:46.903
-5,-2,1,5,0,2,0,-5,2020-10-18 23:19:46.909
-5,-2,1,5,0,2,0,-5,2020-10-18 23:19:46.914
5,6,0,0,-1,0,5,1,2020-10-18 23:19:46.920
5,6,0,0,-1,0,5,1,2020-10-18 23:19:46.926
5,6,0,0,-1,0,5,1,2020-10-18 23:19:46.932
7,4,-1,-1,0,-1,3,2,2020-10-18 23:19:46.938
-9,-2,-1,0,-1,0,-3,-8,2020-10-18 23:19:46.943
-9,-2,-1,0,-1,0,-3,-8,2020-10-18 23:19:46.950
8,-1,0,-1,0,2,5,8,2020-10-18 23:19:46.955
8,-1,0,-1,0,2,5,8,2020-10-18 23:19:46.962
-19,-15,-6,-3,-2,-3,-5,-9,2020-10-18 23:19:46.967
-19,-15,-6,-3,-2,-3,-5,-9,2020-10-18 23:19:46.973
-19,-15,-6,-3,-2,-3,-5,-9,2020-10-18 23:19:46.978
-19,-15,-6,-3,-2,-3,-5,-9,2020-10-18 23:19:46.985
-1,-6,-1,-2,-1,-1,-1,-1,2020-10-18 23:19:46.990
12,12,4,-3,0,0,0,8,2020-10-18 23:19:46.995
3,7,0,0,1,-1,-5,-2,2020-10-18 23:19:47.002
3,7,0,0,1,-1,-5,-2,2020-10-18 23:19:47.007
-6,-4,-4,0,-2,-5,-11,-7,2020-10-18 23:19:47.013
8,12,0,2,0,2,3,11,2020-10-18 23:19:47.019
8,12,0,2,0,2,3,11,2020-10-18 23:19:47.024
-19,-11,-10,-4,-5,-6,-7,-9,2020-10-18 23:19:47.030
-19,-11,-10,-4,-5,-6,-7,-9,2020-10-18 23:19:47.036
-19,-11,-10,-4,-5,-6,-7,-9,2020-10-18 23:19:47.042
-19,-11,-10,-4,-5,-6,-7,-9,2020-10-18 23:19:47.047
8,6,2,2,2,4,6,8,2020-10-18 23:19:47.054
8,6,2,2,2,4,6,8,2020-10-18 23:19:47.059
0,3,-2,-1,-1,-1,5,0,2020-10-18 23:19:47.065
0,3,-2,-1,-1,-1,5,0,2020-10-18 23:19:47.071
25,16,12,7,5,-4,-14,35,2020-10-18 23:19:47.077
25,16,12,7,5,-4,-14,35,2020-10-18 23:19:47.082
-11,0,13,-2,1,1,6,-19,2020-10-18 23:19:47.088
-11,0,13,-2,1,1,6,-19,2020-10-18 23:19:47.094
4,2,14,5,26,24,31,14,2020-10-18 23:19:47.099
4,2,14,5,26,24,31,14,2020-10-18 23:19:47.105
3,3,2,1,6,3,3,5,2020-10-18 23:19:47.110
-10,-8,-9,-6,-8,-5,-6,-15,2020-10-18 23:19:47.116
-10,-8,-9,-6,-8,-5,-6,-15,2020-10-18 23:19:47.122
-10,-8,-9,-6,-8,-5,-6,-15,2020-10-18 23:19:47.127
-10,-8,-9,-6,-8,-5,-6,-15,2020-10-18 23:19:47.132
-10,-8,-9,-6,-8,-5,-6,-15,2020-10-18 23:19:47.139
-8,-15,-35,-16,-10,-5,-27,-10,2020-10-18 23:19:47.145
-8,-15,-35,-16,-10,-5,-27,-10,2020-10-18 23:19:47.151
9,24,41,4,-3,2,4,8,2020-10-18 23:19:47.156
1,-19,-69,-8,8,1,9,2,2020-10-18 23:19:47.163
1,-19,-69,-8,8,1,9,2,2020-10-18 23:19:47.169
1,-19,-69,-8,8,1,9,2,2020-10-18 23:19:47.175
3,19,18,5,-6,-1,9,-14,2020-10-18 23:19:47.187
1,-8,-10,-5,-9,-5,2,10,2020-10-18 23:19:47.193
-3,9,40,-1,-9,-4,9,16,2020-10-18 23:19:47.198
-3,9,40,-1,-9,-4,9,16,2020-10-18 23:19:47.204
15,60,91,38,12,9,3,9,2020-10-18 23:19:47.209
10,22,46,16,3,-2,0,0,2020-10-18 23:19:47.215
10,22,46,16,3,-2,0,0,2020-10-18 23:19:47.222
10,22,46,16,3,-2,0,0,2020-10-18 23:19:47.228
-23,-33,-40,-23,-6,-6,-2,-1,2020-10-18 23:19:47.233
-9,28,18,3,0,-6,-26,-18,2020-10-18 23:19:47.239
-9,28,18,3,0,-6,-26,-18,2020-10-18 23:19:47.245
-9,28,18,3,0,-6,-26,-18,2020-10-18 23:19:47.249
-9,28,18,3,0,-6,-26,-18,2020-10-18 23:19:47.256
9,12,-22,-11,-4,0,3,4,2020-10-18 23:19:47.262
0,11,52,1,0,-7,-8,-8,2020-10-18 23:19:47.267
0,11,52,1,0,-7,-8,-8,2020-10-18 23:19:47.273
0,11,52,1,0,-7,-8,-8,2020-10-18 23:19:47.278
0,11,52,1,0,-7,-8,-8,2020-10-18 23:19:47.284
0,11,52,1,0,-7,-8,-8,2020-10-18 23:19:47.290
-15,-24,-20,-22,-9,-10,-7,-1,2020-10-18 23:19:47.295
-15,-24,-20,-22,-9,-10,-7,-1,2020-10-18 23:19:47.302
1,0,32,7,3,2,-4,12,2020-10-18 23:19:47.307
12,-14,-76,-9,-4,-5,4,5,2020-10-18 23:19:47.313
3,-2,-17,-2,3,2,-2,-3,2020-10-18 23:19:47.319
3,-2,-17,-2,3,2,-2,-3,2020-10-18 23:19:47.324
2,-11,-2,-3,0,3,-1,-5,2020-10-18 23:19:47.330
-14,-10,-12,5,4,3,0,-14,2020-10-18 23:19:47.336
-14,-10,-12,5,4,3,0,-14,2020-10-18 23:19:47.342
-14,-10,-12,5,4,3,0,-14,2020-10-18 23:19:47.347
-14,-10,-12,5,4,3,0,-14,2020-10-18 23:19:47.354
9,-10,-16,-4,-4,-4,-2,7,2020-10-18 23:19:47.359
9,-10,-16,-4,-4,-4,-2,7,2020-10-18 23:19:47.365
9,-10,-16,-4,-4,-4,-2,7,2020-10-18 23:19:47.371
8,1,-6,4,2,3,9,13,2020-10-18 23:19:47.376
4,-4,5,9,7,-9,2,-2,2020-10-18 23:19:47.382
0,-6,-5,2,0,0,15,-7,2020-10-18 23:19:47.387
0,-6,-5,2,0,0,15,-7,2020-10-18 23:19:47.393
-2,16,39,-8,-6,-10,-48,15,2020-10-18 23:19:47.398
-2,16,39,-8,-6,-10,-48,15,2020-10-18 23:19:47.406
-7,-4,12,-6,-21,-3,18,-12,2020-10-18 23:19:47.410
10,20,29,8,4,3,15,-6,2020-10-18 23:19:47.416
10,20,29,8,4,3,15,-6,2020-10-18 23:19:47.422
10,20,29,8,4,3,15,-6,2020-10-18 23:19:47.428
2,-9,9,3,1,2,-6,1,2020-10-18 23:19:47.433
-7,-18,-28,-8,-7,3,5,-7,2020-10-18 23:19:47.440
-7,-18,-28,-8,-7,3,5,-7,2020-10-18 23:19:47.446
-7,-18,-28,-8,-7,3,5,-7,2020-10-18 23:19:47.453
-9,-13,-33,-5,-3,-8,-11,-7,2020-10-18 23:19:47.458
-9,-13,-33,-5,-3,-8,-11,-7,2020-10-18 23:19:47.464
-2,-1,-6,-2,2,-3,-14,-2,2020-10-18 23:19:47.470
-2,-1,-6,-2,2,-3,-14,-2,2020-10-18 23:19:47.476
-15,-10,-5,-7,-6,1,2,-21,2020-10-18 23:19:47.482
-15,-10,-5,-7,-6,1,2,-21,2020-10-18 23:19:47.488
-1,-1,-10,1,0,-4,-13,0,2020-10-18 23:19:47.494
-1,-1,-10,1,0,-4,-13,0,2020-10-18 23:19:47.499
-1,-1,-10,1,0,-4,-13,0,2020-10-18 23:19:47.506
-3,-17,-36,-9,-4,2,11,-2,2020-10-18 23:19:47.511
-1,-2,-2,-3,-1,-1,-1,-3,2020-10-18 23:19:47.517
-1,-2,-2,-3,-1,-1,-1,-3,2020-10-18 23:19:47.523
-1,-2,-2,-3,-1,-1,-1,-3,2020-10-18 23:19:47.528
-6,11,24,2,-1,1,-4,-4,2020-10-18 23:19:47.534
-6,11,24,2,-1,1,-4,-4,2020-10-18 23:19:47.540
0,-8,-20,-1,-2,-1,1,-2,2020-10-18 23:19:47.551
0,-8,-20,-1,-2,-1,1,-2,2020-10-18 23:19:47.556
0,1,1,2,-2,-14,-26,3,2020-10-18 23:19:47.562
0,1,1,2,-2,-14,-26,3,2020-10-18 23:19:47.569
0,1,1,2,-2,-14,-26,3,2020-10-18 23:19:47.575
1,-1,-12,-3,2,4,16,10,2020-10-18 23:19:47.580
1,-1,-12,-3,2,4,16,10,2020-10-18 23:19:47.586
1,-1,-12,-3,2,4,16,10,2020-10-18 23:19:47.592
1,-1,-12,-3,2,4,16,10,2020-10-18 23:19:47.597
1,-1,-12,-3,2,4,16,10,2020-10-18 23:19:47.604
1,-1,1,0,1,2,4,-4,2020-10-18 23:19:47.609
1,-1,1,0,1,2,4,-4,2020-10-18 23:19:47.615
4,1,0,2,-1,1,1,5,2020-10-18 23:19:47.622
-9,-6,-6,-3,-1,1,-3,-7,2020-10-18 23:19:47.627
-9,-6,-6,-3,-1,1,-3,-7,2020-10-18 23:19:47.633
3,4,-3,3,2,2,1,-1,2020-10-18 23:19:47.639
3,4,-3,3,2,2,1,-1,2020-10-18 23:19:47.644
-1,-2,-3,0,0,-2,-10,3,2020-10-18 23:19:47.650
-1,-2,-3,0,0,-2,-10,3,2020-10-18 23:19:47.656
3,1,2,0,0,4,16,6,2020-10-18 23:19:47.662
3,1,2,0,0,4,16,6,2020-10-18 23:19:47.668
-3,-4,-5,-1,0,0,0,-1,2020-10-18 23:19:47.674
-1,-3,1,2,0,1,4,1,2020-10-18 23:19:47.679
-1,-3,1,2,0,1,4,1,2020-10-18 23:19:47.685
-1,-3,1,2,0,1,4,1,2020-10-18 23:19:47.690
2,2,-1,-2,0,-1,3,-4,2020-10-18 23:19:47.696
0,-2,0,-1,-3,-2,-6,3,2020-10-18 23:19:47.702
0,-2,0,-1,-3,-2,-6,3,2020-10-18 23:19:47.707
0,-1,-1,0,0,1,6,-1,2020-10-18 23:19:47.713
-2,-2,-8,-2,0,0,-2,-6,2020-10-18 23:19:47.719
-2,-2,-8,-2,0,0,-2,-6,2020-10-18 23:19:47.724
-2,-2,-8,-2,0,0,-2,-6,2020-10-18 23:19:47.730
3,6,10,5,3,0,-3,0,2020-10-18 23:19:47.736
-2,-2,-2,-2,-3,1,1,1,2020-10-18 23:19:47.741
-2,-2,-2,-2,-3,1,1,1,2020-10-18 23:19:47.747
-2,-2,-2,-2,-3,1,1,1,2020-10-18 23:19:47.752
-1,-1,-3,-1,-1,-2,-5,-5,2020-10-18 23:19:47.758
-1,-1,-3,-1,-1,-2,-5,-5,2020-10-18 23:19:47.764
1,-4,-16,-6,-10,-3,-11,3,2020-10-18 23:19:47.770
1,-4,-16,-6,-10,-3,-11,3,2020-10-18 23:19:47.776
1,-4,-16,-6,-10,-3,-11,3,2020-10-18 23:19:47.782
0,3,6,0,-2,0,0,2,2020-10-18 23:19:47.789
0,-1,2,-1,1,0,-2,0,2020-10-18 23:19:47.795
0,-1,2,-1,1,0,-2,0,2020-10-18 23:19:47.800
0,-1,2,-1,1,0,-2,0,2020-10-18 23:19:47.806
-4,-2,-10,-3,-2,-4,-11,-7,2020-10-18 23:19:47.812
-1,4,11,-2,1,0,2,-2,2020-10-18 23:19:47.817
-1,-5,-10,-2,-2,-1,4,-2,2020-10-18 23:19:47.824
-8,-20,-40,-14,-6,-5,-4,-7,2020-10-18 23:19:47.829
-8,-20,-40,-14,-6,-5,-4,-7,2020-10-18 23:19:47.835
5,16,22,7,5,4,3,4,2020-10-18 23:19:47.841
5,16,22,7,5,4,3,4,2020-10-18 23:19:47.846
-1,6,17,5,-1,-4,-5,-2,2020-10-18 23:19:47.852
-1,6,17,5,-1,-4,-5,-2,2020-10-18 23:19:47.858
-3,-6,-2,-2,0,0,8,-2,2020-10-18 23:19:47.864
-3,-6,-2,-2,0,0,8,-2,2020-10-18 23:19:47.869
-3,-6,-2,-2,0,0,8,-2,2020-10-18 23:19:47.875
-3,-6,-2,-2,0,0,8,-2,2020-10-18 23:19:47.881
4,5,25,5,1,-1,-8,3,2020-10-18 23:19:47.887
1,2,5,0,0,0,0,-4,2020-10-18 23:19:47.893
9,32,59,14,1,5,0,2,2020-10-18 23:19:47.899
9,32,59,14,1,5,0,2,2020-10-18 23:19:47.905
9,32,59,14,1,5,0,2,2020-10-18 23:19:47.910
-3,7,9,1,1,2,11,-2,2020-10-18 23:19:47.916
-5,-13,-25,-6,-1,0,15,-3,2020-10-18 23:19:47.927
-5,-13,-25,-6,-1,0,15,-3,2020-10-18 23:19:47.932
-9,-7,-11,-6,-4,-2,23,-16,2020-10-18 23:19:47.938
-9,-7,-11,-6,-4,-2,23,-16,2020-10-18 23:19:47.944
-3,-5,-4,-2,-2,-2,9,4,2020-10-18 23:19:47.950
-3,-5,-4,-2,-2,-2,9,4,2020-10-18 23:19:47.956
-1,-8,-13,-2,-1,-3,11,-5,2020-10-18 23:19:47.961
-1,-8,-13,-2,-1,-3,11,-5,2020-10-18 23:19:47.967
-5,-2,-9,-1,-1,-4,-37,-23,2020-10-18 23:19:47.973
-5,-2,-9,-1,-1,-4,-37,-23,2020-10-18 23:19:47.978
-5,-2,-9,-1,-1,-4,-37,-23,2020-10-18 23:19:47.983
-1,-3,-11,-3,-1,-1,3,7,2020-10-18 23:19:47.990
4,13,45,11,3,1,14,5,2020-10-18 23:19:47.995
-2,-10,-23,-6,-2,-3,-5,3,2020-10-18 23:19:48.001
-2,-10,-23,-6,-2,-3,-5,3,2020-10-18 23:19:48.007
2,-4,-23,0,-1,-1,15,24,2020-10-18 23:19:48.012
-3,0,-1,-4,0,0,11,-3,2020-10-18 23:19:48.018
-3,0,-1,-4,0,0,11,-3,2020-10-18 23:19:48.025
-3,0,-1,-4,0,0,11,-3,2020-10-18 23:19:48.031
0,-5,-17,-1,2,2,-4,6,2020-10-18 23:19:48.037
-3,-11,-8,-4,-7,0,-7,12,2020-10-18 23:19:48.043
-3,-11,-8,-4,-7,0,-7,12,2020-10-18 23:19:48.049
-3,-11,-8,-4,-7,0,-7,12,2020-10-18 23:19:48.055
6,18,14,8,31,15,3,-4,2020-10-18 23:19:48.061
6,18,14,8,31,15,3,-4,2020-10-18 23:19:48.066
-1,4,11,2,-1,0,18,-3,2020-10-18 23:19:48.073
-3,-8,-12,-5,-10,-9,-17,-3,2020-10-18 23:19:48.078
-3,-8,-12,-5,-10,-9,-17,-3,2020-10-18 23:19:48.084
-3,-8,-12,-5,-10,-9,-17,-3,2020-10-18 23:19:48.090
-2,-1,-12,-3,-2,-3,-6,-4,2020-10-18 23:19:48.096
0,-2,0,-1,-6,-4,-14,7,2020-10-18 23:19:48.100
0,-2,0,-1,-6,-4,-14,7,2020-10-18 23:19:48.106
0,-2,0,-1,-6,-4,-14,7,2020-10-18 23:19:48.111
-1,1,3,0,-1,1,-13,-14,2020-10-18 23:19:48.117
-1,1,3,0,-1,1,-13,-14,2020-10-18 23:19:48.123
0,1,1,3,1,1,9,1,2020-10-18 23:19:48.129
0,1,1,3,1,1,9,1,2020-10-18 23:19:48.135
-2,-5,-9,-2,-3,-1,-8,-2,2020-10-18 23:19:48.142
-2,-5,-9,-2,-3,-1,-8,-2,2020-10-18 23:19:48.147
4,2,-3,-3,2,0,-6,4,2020-10-18 23:19:48.153
4,2,-3,-3,2,0,-6,4,2020-10-18 23:19:48.159
-1,-2,0,-4,-5,5,22,-2,2020-10-18 23:19:48.164
-1,-2,0,-4,-5,5,22,-2,2020-10-18 23:19:48.169
-1,-1,-1,1,15,2,7,3,2020-10-18 23:19:48.175
0,2,-3,0,4,0,2,-4,2020-10-18 23:19:48.181
0,2,-3,0,4,0,2,-4,2020-10-18 23:19:48.187
0,1,0,-5,-3,-4,-5,5,2020-10-18 23:19:48.193
-1,-1,3,0,3,-6,-18,-4,2020-10-18 23:19:48.198
-1,-1,3,0,3,-6,-18,-4,2020-10-18 23:19:48.204
-1,-1,3,0,3,-6,-18,-4,2020-10-18 23:19:48.210
6,3,3,-1,-9,-5,3,11,2020-10-18 23:19:48.216
-3,-4,-3,1,-8,-5,0,-1,2020-10-18 23:19:48.223
-3,-4,-3,1,-8,-5,0,-1,2020-10-18 23:19:48.227
-3,-4,-3,1,-8,-5,0,-1,2020-10-18 23:19:48.234
3,0,-4,3,0,-3,-2,3,2020-10-18 23:19:48.240
3,0,-4,3,0,-3,-2,3,2020-10-18 23:19:48.245
-6,-4,-1,-2,-3,-1,-11,-8,2020-10-18 23:19:48.252
-6,-4,-1,-2,-3,-1,-11,-8,2020-10-18 23:19:48.257
-2,-3,0,1,-3,-4,-17,-6,2020-10-18 23:19:48.262
-2,-3,0,1,-3,-4,-17,-6,2020-10-18 23:19:48.268
5,10,8,-11,-1,-2,-2,3,2020-10-18 23:19:48.281
4,3,0,0,0,9,18,8,2020-10-18 23:19:48.286
4,3,0,0,0,9,18,8,2020-10-18 23:19:48.292
4,3,0,0,0,9,18,8,2020-10-18 23:19:48.297
4,3,0,0,0,9,18,8,2020-10-18 23:19:48.303
4,3,0,0,0,9,18,8,2020-10-18 23:19:48.310
0,0,-3,3,8,3,-1,2,2020-10-18 23:19:48.315
-3,-2,-3,1,7,-3,-7,-1,2020-10-18 23:19:48.321
-3,-2,-3,1,7,-3,-7,-1,2020-10-18 23:19:48.327
-3,-2,-3,1,7,-3,-7,-1,2020-10-18 23:19:48.332
-3,-2,-3,1,7,-3,-7,-1,2020-10-18 23:19:48.339
-2,-1,-2,-1,-2,-2,-11,-5,2020-10-18 23:19:48.345
-2,-1,-2,-1,-2,-2,-11,-5,2020-10-18 23:19:48.350
1,-3,-2,1,10,-2,-7,0,2020-10-18 23:19:48.357
-2,-3,0,-2,-7,-4,-18,-1,2020-10-18 23:19:48.362
-2,-3,0,-2,-7,-4,-18,-1,2020-10-18 23:19:48.367
0,-2,0,2,-3,-2,-3,0,2020-10-18 23:19:48.374
-3,-3,-2,-2,4,1,-2,-1,2020-10-18 23:19:48.379
-3,-3,-2,-2,4,1,-2,-1,2020-10-18 23:19:48.384
-3,-3,-2,-2,4,1,-2,-1,2020-10-18 23:19:48.390
0,-3,-2,-2,-3,-3,-19,-4,2020-10-18 23:19:48.396
0,-2,-2,-1,-5,1,17,6,2020-10-18 23:19:48.400
0,-2,-2,-1,-5,1,17,6,2020-10-18 23:19:48.407
0,-2,-2,-1,-5,1,17,6,2020-10-18 23:19:48.413
-1,1,0,5,-1,1,-9,-1,2020-10-18 23:19:48.418
1,4,2,-5,10,3,-12,7,2020-10-18 23:19:48.424
1,4,2,-5,10,3,-12,7,2020-10-18 23:19:48.430
1,4,2,-5,10,3,-12,7,2020-10-18 23:19:48.436
1,4,2,-5,10,3,-12,7,2020-10-18 23:19:48.443
-3,-4,-2,-1,-1,4,-6,-2,2020-10-18 23:19:48.449
2,2,-1,-3,-5,-57,7,0,2020-10-18 23:19:48.456
0,-2,0,0,-2,-7,0,-4,2020-10-18 23:19:48.462
0,-2,0,0,-2,-7,0,-4,2020-10-18 23:19:48.467
0,-2,0,0,-2,-7,0,-4,2020-10-18 23:19:48.474
-4,-3,-3,-1,2,1,-19,-6,2020-10-18 23:19:48.479
2,2,0,0,-8,-4,4,0,2020-10-18 23:19:48.485
2,2,0,0,-8,-4,4,0,2020-10-18 23:19:48.490
2,2,0,0,-8,-4,4,0,2020-10-18 23:19:48.496
0,-1,0,9,1,6,3,-3,2020-10-18 23:19:48.502
0,-1,0,9,1,6,3,-3,2020-10-18 23:19:48.508
0,0,0,-6,-6,14,10,3,2020-10-18 23:19:48.514
-2,-1,-1,-3,-2,-5,8,1,2020-10-18 23:19:48.520
-2,-1,-1,-3,-2,-5,8,1,2020-10-18 23:19:48.525
-2,-1,-1,-3,-2,-5,8,1,2020-10-18 23:19:48.531
-2,-1,0,-8,-4,14,-5,-10,2020-10-18 23:19:48.537
-1,0,1,0,-3,-7,1,0,2020-10-18 23:19:48.543
-1,0,1,0,-3,-7,1,0,2020-10-18 23:19:48.548
-1,0,1,0,-3,-7,1,0,2020-10-18 23:19:48.555
-5,-1,0,-4,-3,-2,-9,-3,2020-10-18 23:19:48.561
-5,-1,0,-4,-3,-2,-9,-3,2020-10-18 23:19:48.566
-5,-1,0,-4,-3,-2,-9,-3,2020-10-18 23:19:48.573
-4,-2,-1,1,6,-4,6,-3,2020-10-18 23:19:48.579
-4,-2,-1,1,6,-4,6,-3,2020-10-18 23:19:48.584
-4,-2,-1,1,6,-4,6,-3,2020-10-18 23:19:48.591
4,2,1,-1,0,-7,0,6,2020-10-18 23:19:48.596
1,1,0,-8,-9,6,10,4,2020-10-18 23:19:48.603
1,1,0,-8,-9,6,10,4,2020-10-18 23:19:48.608
1,1,0,-8,-9,6,10,4,2020-10-18 23:19:48.614
5,1,0,4,-1,-24,-41,11,2020-10-18 23:19:48.620
5,1,0,4,-1,-24,-41,11,2020-10-18 23:19:48.626
5,1,0,4,-1,-24,-41,11,2020-10-18 23:19:48.632
5,1,0,4,-1,-24,-41,11,2020-10-18 23:19:48.638
-1,0,-1,2,-7,-36,-3,-2,2020-10-18 23:19:48.643
-1,0,-1,2,-7,-36,-3,-2,2020-10-18 23:19:48.649
-3,-3,-2,3,-16,-19,-17,-5,2020-10-18 23:19:48.655
-3,-3,-2,3,-16,-19,-17,-5,2020-10-18 23:19:48.661
-2,-6,-7,4,3,-1,9,-3,2020-10-18 23:19:48.666
-2,-6,-7,4,3,-1,9,-3,2020-10-18 23:19:48.678
-3,-5,-5,-3,6,22,32,-5,2020-10-18 23:19:48.683
-3,-5,-5,-3,6,22,32,-5,2020-10-18 23:19:48.690
-1,-3,-7,1,5,13,9,0,2020-10-18 23:19:48.695
5,5,7,-3,-6,6,5,11,2020-10-18 23:19:48.701
5,5,7,-3,-6,6,5,11,2020-10-18 23:19:48.708
5,5,7,-3,-6,6,5,11,2020-10-18 23:19:48.713
3,2,1,-3,1,13,-3,4,2020-10-18 23:19:48.719
-1,-1,-1,-3,8,6,-8,-8,2020-10-18 23:19:48.725
-1,-1,-1,-3,8,6,-8,-8,2020-10-18 23:19:48.731
-1,-1,-1,-3,8,6,-8,-8,2020-10-18 23:19:48.736
-4,-8,-7,28,3,0,0,-4,2020-10-18 23:19:48.742
-4,-8,-7,28,3,0,0,-4,2020-10-18 23:19:48.747
-4,-5,-10,8,-11,-3,62,0,2020-10-18 23:19:48.754
-4,-5,-10,8,-11,-3,62,0,2020-10-18 23:19:48.760
-6,-6,-5,-1,-11,-29,-104,-10,2020-10-18 23:19:48.765
-6,-6,-5,-1,-11,-29,-104,-10,2020-10-18 23:19:48.772
-6,-6,-5,-1,-11,-29,-104,-10,2020-10-18 23:19:48.777
-2,-8,-7,0,4,1,26,5,2020-10-18 23:19:48.783
0,0,-2,-4,-5,4,22,-3,2020-10-18 23:19:48.789
0,0,-2,-4,-5,4,22,-3,2020-10-18 23:19:48.794
8,5,3,-12,4,26,25,3,2020-10-18 23:19:48.800
8,5,3,-12,4,26,25,3,2020-10-18 23:19:48.806
8,5,3,-12,4,26,25,3,2020-10-18 23:19:48.812
8,5,3,-12,4,26,25,3,2020-10-18 23:19:48.817
1,4,-1,-10,10,13,19,6,2020-10-18 23:19:48.824
1,4,-1,-10,10,13,19,6,2020-10-18 23:19:48.830
1,4,-1,-10,10,13,19,6,2020-10-18 23:19:48.835
1,4,-1,-10,10,13,19,6,2020-10-18 23:19:48.841
4,-1,0,0,1,-6,-13,1,2020-10-18 23:19:48.846
4,-1,0,0,1,-6,-13,1,2020-10-18 23:19:48.852
8,-1,-6,-2,-4,-8,1,3,2020-10-18 23:19:48.858
-5,3,3,0,-3,12,42,6,2020-10-18 23:19:48.864
-5,3,3,0,-3,12,42,6,2020-10-18 23:19:48.870
-7,-6,-10,-7,4,-5,-17,-4,2020-10-18 23:19:48.875
6,6,8,11,-10,4,8,9,2020-10-18 23:19:48.881
6,6,8,11,-10,4,8,9,2020-10-18 23:19:48.887
6,6,8,11,-10,4,8,9,2020-10-18 23:19:48.893
6,6,8,11,-10,4,8,9,2020-10-18 23:19:48.899
5,8,7,-28,-12,-11,-3,0,2020-10-18 23:19:48.905
5,8,7,-28,-12,-11,-3,0,2020-10-18 23:19:48.911
5,8,7,-28,-12,-11,-3,0,2020-10-18 23:19:48.917
-1,3,10,27,-1,14,-9,1,2020-10-18 23:19:48.924
-1,3,10,27,-1,14,-9,1,2020-10-18 23:19:48.929
1,3,2,4,41,40,-11,-4,2020-10-18 23:19:48.935
2,0,-4,-14,9,-14,-21,-3,2020-10-18 23:19:48.941
2,0,-4,-14,9,-14,-21,-3,2020-10-18 23:19:48.947
2,0,-4,-14,9,-14,-21,-3,2020-10-18 23:19:48.951
-6,-2,1,-1,16,87,89,7,2020-10-18 23:19:48.957
-6,-5,-3,22,89,30,-6,-8,2020-10-18 23:19:48.963
-6,-5,-3,22,89,30,-6,-8,2020-10-18 23:19:48.969
-6,-5,-3,22,89,30,-6,-8,2020-10-18 23:19:48.974
-6,-5,-3,22,89,30,-6,-8,2020-10-18 23:19:48.981
3,5,3,7,-11,-42,-26,-1,2020-10-18 23:19:48.986
3,5,3,7,-11,-42,-26,-1,2020-10-18 23:19:48.992
4,4,-1,-8,-17,-4,0,0,2020-10-18 23:19:48.997
-11,-9,-7,-18,-35,-5,14,-1,2020-10-18 23:19:49.004
-11,-9,-7,-18,-35,-5,14,-1,2020-10-18 23:19:49.009
-5,-2,3,8,11,20,20,-8,2020-10-18 23:19:49.015
-5,-2,3,8,11,20,20,-8,2020-10-18 23:19:49.021
6,5,4,5,-3,36,30,3,2020-10-18 23:19:49.026
6,5,4,5,-3,36,30,3,2020-10-18 23:19:49.032
6,5,4,5,-3,36,30,3,2020-10-18 23:19:49.038
1,-1,-7,35,49,14,-5,1,2020-10-18 23:19:49.043
1,-1,-7,35,49,14,-5,1,2020-10-18 23:19:49.049
2,5,1,7,15,-15,0,2,2020-10-18 23:19:49.055
1,-1,9,8,5,35,8,8,2020-10-18 23:19:49.061
-10,-13,0,-25,-54,-1,9,-7,2020-10-18 23:19:49.073
-10,-13,0,-25,-54,-1,9,-7,2020-10-18 23:19:49.078
8,11,5,11,-12,-15,16,7,2020-10-18 23:19:49.083
8,11,5,11,-12,-15,16,7,2020-10-18 23:19:49.090
8,11,5,11,-12,-15,16,7,2020-10-18 23:19:49.096
-6,1,18,4,-9,-13,-6,-1,2020-10-18 23:19:49.102
-6,1,18,4,-9,-13,-6,-1,2020-10-18 23:19:49.107
-6,1,18,4,-9,-13,-6,-1,2020-10-18 23:19:49.113
-6,1,18,4,-9,-13,-6,-1,2020-10-18 23:19:49.118
1,22,56,7,-11,19,-4,-6,2020-10-18 23:19:49.124
1,22,56,7,-11,19,-4,-6,2020-10-18 23:19:49.130
1,10,7,0,-6,-26,-41,-5,2020-10-18 23:19:49.135
1,10,7,0,-6,-26,-41,-5,2020-10-18 23:19:49.141
0,-8,-27,-1,12,5,-3,1,2020-10-18 23:19:49.146
0,-8,-27,-1,12,5,-3,1,2020-10-18 23:19:49.152
0,-8,-27,-1,12,5,-3,1,2020-10-18 23:19:49.158
-5,-9,-29,5,4,-59,-27,5,2020-10-18 23:19:49.164
-5,-9,-29,5,4,-59,-27,5,2020-10-18 23:19:49.170
-8,-10,-21,4,-15,-7,-19,-15,2020-10-18 23:19:49.175
5,-5,2,-7,-25,-12,21,-6,2020-10-18 23:19:49.181
5,-5,2,-7,-25,-12,21,-6,2020-10-18 23:19:49.187
5,-5,2,-7,-25,-12,21,-6,2020-10-18 23:19:49.193
5,-5,2,-7,-25,-12,21,-6,2020-10-18 23:19:49.198
6,1,12,5,18,-1,-21,15,2020-10-18 23:19:49.205
-5,-3,-13,-9,-18,89,-29,-31,2020-10-18 23:19:49.211
-5,-3,-13,-9,-18,89,-29,-31,2020-10-18 23:19:49.216
-10,-5,0,1,2,15,-8,-10,2020-10-18 23:19:49.222
6,-3,-13,-8,-33,-41,-18,-29,2020-10-18 23:19:49.228
-9,-5,1,4,5,2,33,-11,2020-10-18 23:19:49.233
-9,-5,1,4,5,2,33,-11,2020-10-18 23:19:49.239
3,1,0,20,73,-3,42,56,2020-10-18 23:19:49.245
3,1,0,20,73,-3,42,56,2020-10-18 23:19:49.251
-3,-4,2,-6,-3,-36,2,10,2020-10-18 23:19:49.257
-1,2,-1,-17,-10,-41,80,23,2020-10-18 23:19:49.262
-1,2,-1,-17,-10,-41,80,23,2020-10-18 23:19:49.268
-1,2,-1,-17,-10,-41,80,23,2020-10-18 23:19:49.273
-1,2,-1,-17,-10,-41,80,23,2020-10-18 23:19:49.279
-1,2,-1,-17,-10,-41,80,23,2020-10-18 23:19:49.284
7,2,-5,-1,-12,2,12,20,2020-10-18 23:19:49.290
-3,-4,-9,-16,-22,26,29,11,2020-10-18 23:19:49.295
-19,-24,-38,-4,-7,-51,33,-40,2020-10-18 23:19:49.301
-19,-24,-38,-4,-7,-51,33,-40,2020-10-18 23:19:49.307
-19,-24,-38,-4,-7,-51,33,-40,2020-10-18 23:19:49.313
8,8,24,22,0,-17,-38,0,2020-10-18 23:19:49.318
8,8,24,22,0,-17,-38,0,2020-10-18 23:19:49.325
8,8,24,22,0,-17,-38,0,2020-10-18 23:19:49.330
8,8,24,22,0,-17,-38,0,2020-10-18 23:19:49.336
-8,-6,-2,-9,19,-84,-79,-69,2020-10-18 23:19:49.343
9,10,28,-20,-38,-31,-71,-29,2020-10-18 23:19:49.348
9,10,28,-20,-38,-31,-71,-29,2020-10-18 23:19:49.353
9,10,28,-20,-38,-31,-71,-29,2020-10-18 23:19:49.359
1,-1,-2,1,-57,52,-19,-32,2020-10-18 23:19:49.365
1,-1,-2,1,-57,52,-19,-32,2020-10-18 23:19:49.370
-3,-5,-11,3,-17,26,-42,-38,2020-10-18 23:19:49.376
13,23,76,51,23,27,24,28,2020-10-18 23:19:49.382
13,23,76,51,23,27,24,28,2020-10-18 23:19:49.387
13,23,76,51,23,27,24,28,2020-10-18 23:19:49.393
-4,-5,-4,-4,-42,75,87,34,2020-10-18 23:19:49.398
-10,-14,-31,-12,32,22,15,1,2020-10-18 23:19:49.405
-10,-14,-31,-12,32,22,15,1,2020-10-18 23:19:49.410
-10,-14,-31,-12,32,22,15,1,2020-10-18 23:19:49.416
-9,0,-2,11,40,40,-18,8,2020-10-18 23:19:49.423
-9,0,-2,11,40,40,-18,8,2020-10-18 23:19:49.428
-9,0,-2,11,40,40,-18,8,2020-10-18 23:19:49.434
3,5,2,9,-26,-6,-31,-6,2020-10-18 23:19:49.441
-17,-6,-11,-15,14,-49,-91,-58,2020-10-18 23:19:49.454
3,1,-9,2,21,4,-25,-2,2020-10-18 23:19:49.460
28,39,56,32,11,17,-23,-16,2020-10-18 23:19:49.466
28,39,56,32,11,17,-23,-16,2020-10-18 23:19:49.472
28,39,56,32,11,17,-23,-16,2020-10-18 23:19:49.477
7,-10,-37,-4,-21,10,38,18,2020-10-18 23:19:49.484
7,-10,-37,-4,-21,10,38,18,2020-10-18 23:19:49.491
-3,5,-3,-14,25,27,12,2,2020-10-18 23:19:49.495
6,-5,-37,-24,-12,-6,-23,5,2020-10-18 23:19:49.501
6,-5,-37,-24,-12,-6,-23,5,2020-10-18 23:19:49.507
6,-5,-37,-24,-12,-6,-23,5,2020-10-18 23:19:49.513
-14,-18,-11,-5,-41,20,4,-1,2020-10-18 23:19:49.519
-14,-18,-11,-5,-41,20,4,-1,2020-10-18 23:19:49.525
-14,-18,-11,-5,-41,20,4,-1,2020-10-18 23:19:49.530
8,8,-22,10,-7,-1,-6,10,2020-10-18 23:19:49.535
-1,-20,15,1,-5,-5,15,4,2020-10-18 23:19:49.542
-19,-37,-9,-3,-10,5,-2,-2,2020-10-18 23:19:49.548
-19,-37,-9,-3,-10,5,-2,-2,2020-10-18 23:19:49.553
19,-12,20,7,11,-11,-2,6,2020-10-18 23:19:49.559
-17,16,73,0,2,6,-3,-5,2020-10-18 23:19:49.565
-17,16,73,0,2,6,-3,-5,2020-10-18 23:19:49.570
-17,16,73,0,2,6,-3,-5,2020-10-18 23:19:49.576
-5,43,-29,27,15,-4,1,-2,2020-10-18 23:19:49.582
-7,-5,-8,5,-12,-1,-1,-10,2020-10-18 23:19:49.588
-7,-5,-8,5,-12,-1,-1,-10,2020-10-18 23:19:49.594
15,20,-51,-32,2,0,2,4,2020-10-18 23:19:49.599
15,20,-51,-32,2,0,2,4,2020-10-18 23:19:49.606
-9,21,-7,-29,-5,-2,-5,-1,2020-10-18 23:19:49.612
-9,-31,-50,-17,3,-1,-1,-4,2020-10-18 23:19:49.617
6,10,26,5,4,10,2,-2,2020-10-18 23:19:49.624
-14,1,16,-51,-10,-2,-3,-4,2020-10-18 23:19:49.629
-14,1,16,-51,-10,-2,-3,-4,2020-10-18 23:19:49.635
1,9,-22,-10,-2,-5,0,-1,2020-10-18 23:19:49.641
4,-37,-57,-38,-2,2,4,1,2020-10-18 23:19:49.645
4,-37,-57,-38,-2,2,4,1,2020-10-18 23:19:49.650
4,-37,-57,-38,-2,2,4,1,2020-10-18 23:19:49.656
4,-37,-57,-38,-2,2,4,1,2020-10-18 23:19:49.662
-25,-15,-23,-38,-6,-8,-9,-15,2020-10-18 23:19:49.668
-25,-15,-23,-38,-6,-8,-9,-15,2020-10-18 23:19:49.674
14,-15,29,16,1,-2,6,15,2020-10-18 23:19:49.679
-28,-41,10,10,-6,-7,-18,-15,2020-10-18 23:19:49.685
-28,-41,10,10,-6,-7,-18,-15,2020-10-18 23:19:49.691
-28,-41,10,10,-6,-7,-18,-15,2020-10-18 23:19:49.696
2,-9,11,-7,-3,2,-4,2,2020-10-18 23:19:49.702
9,9,-48,12,3,12,20,1,2020-10-18 23:19:49.708
9,9,-48,12,3,12,20,1,2020-10-18 23:19:49.713
9,9,-48,12,3,12,20,1,2020-10-18 23:19:49.718
9,9,-48,12,3,12,20,1,2020-10-18 23:19:49.725
-3,-37,-66,-17,-7,-4,1,-2,2020-10-18 23:19:49.731
0,48,22,-4,5,11,17,0,2020-10-18 23:19:49.737
0,48,22,-4,5,11,17,0,2020-10-18 23:19:49.744
-4,-25,15,5,-1,-2,4,2,2020-10-18 23:19:49.749
-4,-25,15,5,-1,-2,4,2,2020-10-18 23:19:49.754
34,63,44,2,-5,-1,-1,5,2020-10-18 23:19:49.761
-33,-42,22,9,-2,-4,-16,-14,2020-10-18 23:19:49.767
-33,-42,22,9,-2,-4,-16,-14,2020-10-18 23:19:49.773
-33,-42,22,9,-2,-4,-16,-14,2020-10-18 23:19:49.779
-10,-45,2,43,4,2,5,1,2020-10-18 23:19:49.785
-10,-45,2,43,4,2,5,1,2020-10-18 23:19:49.791
15,14,22,43,9,1,3,11,2020-10-18 23:19:49.797
15,14,22,43,9,1,3,11,2020-10-18 23:19:49.803
32,62,8,-9,3,-1,-5,15,2020-10-18 23:19:49.808
32,62,8,-9,3,-1,-5,15,2020-10-18 23:19:49.813
-20,-32,8,-6,6,1,2,-9,2020-10-18 23:19:49.818
-20,-32,8,-6,6,1,2,-9,2020-10-18 23:19:49.824
-20,-32,8,-6,6,1,2,-9,2020-10-18 23:19:49.830
-20,-32,8,-6,6,1,2,-9,2020-10-18 23:19:49.836
20,3,-31,-21,6,1,0,11,2020-10-18 23:19:49.842
7,86,83,-77,-6,-2,1,13,2020-10-18 23:19:49.847
7,86,83,-77,-6,-2,1,13,2020-10-18 23:19:49.861
0,7,3,21,4,1,2,-3,2020-10-18 23:19:49.866
0,7,3,21,4,1,2,-3,2020-10-18 23:19:49.872
11,19,-57,16,-11,-3,3,13,2020-10-18 23:19:49.878
-9,-12,9,27,-2,-4,-4,1,2020-10-18 23:19:49.884
-9,-12,9,27,-2,-4,-4,1,2020-10-18 23:19:49.890
-9,-12,9,27,-2,-4,-4,1,2020-10-18 23:19:49.896
-40,-118,-81,21,15,16,8,-4,2020-10-18 23:19:49.902
-40,-118,-81,21,15,16,8,-4,2020-10-18 23:19:49.907
16,50,-8,28,1,-1,-9,-14,2020-10-18 23:19:49.913
4,39,-15,-8,-14,-7,9,7,2020-10-18 23:19:49.918
27,-44,16,4,-3,-4,-5,7,2020-10-18 23:19:49.924
27,-44,16,4,-3,-4,-5,7,2020-10-18 23:19:49.930
27,-44,16,4,-3,-4,-5,7,2020-10-18 23:19:49.935
2,-18,-43,0,-8,7,18,-2,2020-10-18 23:19:49.942
13,73,15,-16,-1,4,24,19,2020-10-18 23:19:49.948
13,73,15,-16,-1,4,24,19,2020-10-18 23:19:49.953
13,73,15,-16,-1,4,24,19,2020-10-18 23:19:49.959
-66,-76,-52,-1,-4,-5,-7,-33,2020-10-18 23:19:49.964
-66,-76,-52,-1,-4,-5,-7,-33,2020-10-18 23:19:49.970
28,92,60,-16,0,10,45,60,2020-10-18 23:19:49.976
28,92,60,-16,0,10,45,60,2020-10-18 23:19:49.982
-23,-34,-35,-9,-8,-9,-20,-25,2020-10-18 23:19:49.986
-23,-34,-35,-9,-8,-9,-20,-25,2020-10-18 23:19:49.992
57,82,6,-28,-8,-1,11,34,2020-10-18 23:19:49.998
-35,-50,-7,0,-1,-5,-11,-26,2020-10-18 23:19:50.004
-35,-50,-7,0,-1,-5,-11,-26,2020-10-18 23:19:50.010
-35,-50,-7,0,-1,-5,-11,-26,2020-10-18 23:19:50.016
31,-3,-9,9,8,9,18,15,2020-10-18 23:19:50.023
31,-3,-9,9,8,9,18,15,2020-10-18 23:19:50.028
31,-3,-9,9,8,9,18,15,2020-10-18 23:19:50.033
31,-3,-9,9,8,9,18,15,2020-10-18 23:19:50.039
-71,-93,-43,-49,-7,7,26,-36,2020-10-18 23:19:50.044
9,75,19,28,2,-4,-9,19,2020-10-18 23:19:50.050
9,75,19,28,2,-4,-9,19,2020-10-18 23:19:50.055
-23,-38,-58,-15,-11,-13,-24,-21,2020-10-18 23:19:50.061
-70,-85,52,-8,0,-2,-4,-19,2020-10-18 23:19:50.066
-70,-85,52,-8,0,-2,-4,-19,2020-10-18 23:19:50.073
-70,-85,52,-8,0,-2,-4,-19,2020-10-18 23:19:50.079
-46,-56,-82,-44,-24,-19,-32,-43,2020-10-18 23:19:50.085
-46,-56,-82,-44,-24,-19,-32,-43,2020-10-18 23:19:50.092
-54,-85,-26,36,-5,-5,-8,-8,2020-10-18 23:19:50.097
77,97,-15,-4,3,3,19,42,2020-10-18 23:19:50.103
77,97,-15,-4,3,3,19,42,2020-10-18 23:19:50.109
77,97,-15,-4,3,3,19,42,2020-10-18 23:19:50.114
-37,-75,13,-48,-43,-15,27,17,2020-10-18 23:19:50.120
-25,-98,42,25,80,1,-4,3,2020-10-18 23:19:50.126
-25,-98,42,25,80,1,-4,3,2020-10-18 23:19:50.131
-25,-98,42,25,80,1,-4,3,2020-10-18 23:19:50.137
7,15,29,51,26,16,31,18,2020-10-18 23:19:50.143
25,127,-10,4,-75,-44,-82,11,2020-10-18 23:19:50.149
-34,-28,-17,52,35,24,-11,-40,2020-10-18 23:19:50.155
-34,-28,-17,52,35,24,-11,-40,2020-10-18 23:19:50.160
98,127,59,-7,25,46,94,72,2020-10-18 23:19:50.166
98,127,59,-7,25,46,94,72,2020-10-18 23:19:50.173
-35,-13,-37,4,-32,-32,-95,-89,2020-10-18 23:19:50.178
-35,-13,-37,4,-32,-32,-95,-89,2020-10-18 23:19:50.184
-35,-13,-37,4,-32,-32,-95,-89,2020-10-18 23:19:50.191
18,-34,14,-3,1,-1,10,6,2020-10-18 23:19:50.196
-3,-89,-36,-12,38,9,0,1,2020-10-18 23:19:50.202
-25,-34,-40,-32,4,14,46,11,2020-10-18 23:19:50.209
60,122,45,-21,-19,-7,-14,21,2020-10-18 23:19:50.214
60,122,45,-21,-19,-7,-14,21,2020-10-18 23:19:50.220
-54,-85,-50,-1,-8,-9,-12,-27,2020-10-18 23:19:50.225
-54,-85,-50,-1,-8,-9,-12,-27,2020-10-18 23:19:50.232
59,69,57,-8,6,3,33,42,2020-10-18 23:19:50.236
59,69,57,-8,6,3,33,42,2020-10-18 23:19:50.243
59,69,57,-8,6,3,33,42,2020-10-18 23:19:50.248
30,22,-2,-40,-8,10,70,31,2020-10-18 23:19:50.254
81,-8,-38,-22,6,3,25,67,2020-10-18 23:19:50.261
-27,-63,85,64,-13,-3,11,-17,2020-10-18 23:19:50.266
-27,-63,85,64,-13,-3,11,-17,2020-10-18 23:19:50.279
-100,-80,-83,91,68,10,-72,-67,2020-10-18 23:19:50.285
-100,-80,-83,91,68,10,-72,-67,2020-10-18 23:19:50.291
-100,-80,-83,91,68,10,-72,-67,2020-10-18 23:19:50.296
-100,-80,-83,91,68,10,-72,-67,2020-10-18 23:19:50.302
-12,-24,42,-79,-23,7,-40,-58,2020-10-18 23:19:50.308
-12,-24,42,-79,-23,7,-40,-58,2020-10-18 23:19:50.313
-12,-24,42,-79,-23,7,-40,-58,2020-10-18 23:19:50.318
-49,-31,-53,-56,5,-12,17,-26,2020-10-18 23:19:50.325
48,98,79,-28,-2,4,53,74,2020-10-18 23:19:50.331
48,98,79,-28,-2,4,53,74,2020-10-18 23:19:50.336
48,98,79,-28,-2,4,53,74,2020-10-18 23:19:50.342
48,98,79,-28,-2,4,53,74,2020-10-18 23:19:50.348
50,57,-56,28,0,7,-91,-36,2020-10-18 23:19:50.354
-78,-44,67,22,4,-9,-11,-27,2020-10-18 23:19:50.360
89,93,-68,-32,-8,15,88,84,2020-10-18 23:19:50.365
89,93,-68,-32,-8,15,88,84,2020-10-18 23:19:50.371
89,93,-68,-32,-8,15,88,84,2020-10-18 23:19:50.377
-28,-37,-49,-45,7,15,16,-41,2020-10-18 23:19:50.383
-28,-37,-49,-45,7,15,16,-41,2020-10-18 23:19:50.388
-28,-37,-49,-45,7,15,16,-41,2020-10-18 23:19:50.394
-3,13,22,-4,-31,-18,19,10,2020-10-18 23:19:50.399
8,0,-50,-8,-42,-15,-28,-23,2020-10-18 23:19:50.406
8,0,-50,-8,-42,-15,-28,-23,2020-10-18 23:19:50.411
-17,-5,-28,68,30,12,1,-15,2020-10-18 23:19:50.417
-17,-5,-28,68,30,12,1,-15,2020-10-18 23:19:50.424
9,14,15,50,-3,-6,-14,10,2020-10-18 23:19:50.429
9,14,15,50,-3,-6,-14,10,2020-10-18 23:19:50.434
-52,-47,85,-37,-28,-19,32,-9,2020-10-18 23:19:50.441
-52,-47,85,-37,-28,-19,32,-9,2020-10-18 23:19:50.447
-52,-47,85,-37,-28,-19,32,-9,2020-10-18 23:19:50.452
-25,-59,-59,-52,-17,-10,20,-2,2020-10-18 23:19:50.459
-12,6,50,-5,11,2,-13,-29,2020-10-18 23:19:50.465
-12,6,50,-5,11,2,-13,-29,2020-10-18 23:19:50.472
-12,6,50,-5,11,2,-13,-29,2020-10-18 23:19:50.477
10,0,-50,11,-6,-10,-13,-28,2020-10-18 23:19:50.483
24,60,63,11,35,19,31,12,2020-10-18 23:19:50.490
24,60,63,11,35,19,31,12,2020-10-18 23:19:50.495
-21,7,-37,-17,-7,3,22,-3,2020-10-18 23:19:50.500
37,49,44,32,18,15,9,9,2020-10-18 23:19:50.506
37,49,44,32,18,15,9,9,2020-10-18 23:19:50.512
37,49,44,32,18,15,9,9,2020-10-18 23:19:50.518
37,49,44,32,18,15,9,9,2020-10-18 23:19:50.524
37,49,44,32,18,15,9,9,2020-10-18 23:19:50.529
-1,-14,-48,-4,1,-2,-12,7,2020-10-18 23:19:50.535
-17,-31,-75,42,-5,-9,-29,-16,2020-10-18 23:19:50.541
14,45,66,39,35,15,-60,26,2020-10-18 23:19:50.547
14,45,66,39,35,15,-60,26,2020-10-18 23:19:50.551
14,45,66,39,35,15,-60,26,2020-10-18 23:19:50.557
6,-17,-38,-14,-2,3,11,13,2020-10-18 23:19:50.564
-22,-51,-118,-11,-11,-11,30,-18,2020-10-18 23:19:50.569
-22,-51,-118,-11,-11,-11,30,-18,2020-10-18 23:19:50.575
-22,-51,-118,-11,-11,-11,30,-18,2020-10-18 23:19:50.580
-22,-51,-118,-11,-11,-11,30,-18,2020-10-18 23:19:50.586
28,24,56,31,10,13,9,34,2020-10-18 23:19:50.592
14,17,-83,-6,-12,-14,-37,-7,2020-10-18 23:19:50.598
14,17,-83,-6,-12,-14,-37,-7,2020-10-18 23:19:50.604
14,17,-83,-6,-12,-14,-37,-7,2020-10-18 23:19:50.610
-14,-26,-68,-15,-7,-9,-18,-7,2020-10-18 23:19:50.615
-5,5,47,-23,-5,3,33,7,2020-10-18 23:19:50.621
-12,-28,-83,-27,2,-4,2,-4,2020-10-18 23:19:50.627
-12,-28,-83,-27,2,-4,2,-4,2020-10-18 23:19:50.632
-12,-28,-83,-27,2,-4,2,-4,2020-10-18 23:19:50.638
11,11,-52,36,10,2,-15,18,2020-10-18 23:19:50.644
-34,-62,-13,-46,-26,-3,20,-24,2020-10-18 23:19:50.649
-34,-62,-13,-46,-26,-3,20,-24,2020-10-18 23:19:50.655
-34,-62,-13,-46,-26,-3,20,-24,2020-10-18 23:19:50.662
38,81,51,-14,16,13,20,45,2020-10-18 23:19:50.667
38,81,51,-14,16,13,20,45,2020-10-18 23:19:50.674
38,81,51,-14,16,13,20,45,2020-10-18 23:19:50.679
38,81,51,-14,16,13,20,45,2020-10-18 23:19:50.685
18,31,-38,10,16,14,43,14,2020-10-18 23:19:50.697
9,26,-31,1,-1,-2,-11,-2,2020-10-18 23:19:50.703
-50,-66,-58,-32,-26,-29,-35,-52,2020-10-18 23:19:50.709
-50,-66,-58,-32,-26,-29,-35,-52,2020-10-18 23:19:50.714
13,32,-35,-11,16,9,-6,-3,2020-10-18 23:19:50.719
13,32,-35,-11,16,9,-6,-3,2020-10-18 23:19:50.726
13,32,-35,-11,16,9,-6,-3,2020-10-18 23:19:50.732
4,-2,-24,7,-4,-5,-11,0,2020-10-18 23:19:50.737
10,7,44,-16,-6,-8,8,-3,2020-10-18 23:19:50.742
-5,0,63,24,2,-4,-8,6,2020-10-18 23:19:50.748
-5,0,63,24,2,-4,-8,6,2020-10-18 23:19:50.753
-5,0,63,24,2,-4,-8,6,2020-10-18 23:19:50.760
3,-6,-4,16,3,-7,-49,-9,2020-10-18 23:19:50.765
3,-6,-4,16,3,-7,-49,-9,2020-10-18 23:19:50.771
-2,-28,-66,-1,-7,0,-5,9,2020-10-18 23:19:50.777
-2,-28,-66,-1,-7,0,-5,9,2020-10-18 23:19:50.783
-2,-28,-66,-1,-7,0,-5,9,2020-10-18 23:19:50.789
7,21,-28,-11,-7,2,22,4,2020-10-18 23:19:50.795
-28,-43,-82,-32,-5,-1,-8,-26,2020-10-18 23:19:50.801
14,-5,-72,7,6,3,9,12,2020-10-18 23:19:50.807
14,-5,-72,7,6,3,9,12,2020-10-18 23:19:50.812
14,-5,-72,7,6,3,9,12,2020-10-18 23:19:50.818
-4,-16,-37,5,-8,-4,-7,-12,2020-10-18 23:19:50.825
4,18,91,13,-2,0,1,0,2020-10-18 23:19:50.830
4,18,91,13,-2,0,1,0,2020-10-18 23:19:50.836
-17,-11,101,12,-10,-12,-16,-16,2020-10-18 23:19:50.842
-10,-34,-46,-3,-6,-2,11,-8,2020-10-18 23:19:50.847
-10,-34,-46,-3,-6,-2,11,-8,2020-10-18 23:19:50.853
-10,-34,-46,-3,-6,-2,11,-8,2020-10-18 23:19:50.859
20,18,36,6,7,11,18,14,2020-10-18 23:19:50.864
-10,5,7,-2,-4,-6,13,-5,2020-10-18 23:19:50.869
-10,5,7,-2,-4,-6,13,-5,2020-10-18 23:19:50.875
-10,5,7,-2,-4,-6,13,-5,2020-10-18 23:19:50.881
-20,-31,35,-8,-15,-11,-14,-19,2020-10-18 23:19:50.886
-20,-31,35,-8,-15,-11,-14,-19,2020-10-18 23:19:50.893
4,20,28,12,2,-3,-6,-1,2020-10-18 23:19:50.898
4,20,28,12,2,-3,-6,-1,2020-10-18 23:19:50.904
1,4,0,-5,-1,-1,2,4,2020-10-18 23:19:50.910
1,4,0,-5,-1,-1,2,4,2020-10-18 23:19:50.915
21,26,-24,5,10,6,-1,10,2020-10-18 23:19:50.920
21,26,-24,5,10,6,-1,10,2020-10-18 23:19:50.927
21,26,-24,5,10,6,-1,10,2020-10-18 23:19:50.932
5,-6,-68,8,6,4,2,4,2020-10-18 23:19:50.938
-17,-27,-27,-9,-8,-8,-11,-11,2020-10-18 23:19:50.944
-1,4,19,-6,-1,-1,-4,-3,2020-10-18 23:19:50.950
-1,4,19,-6,-1,-1,-4,-3,2020-10-18 23:19:50.956
-10,-8,33,6,-8,-7,-6,-5,2020-10-18 23:19:50.962
4,4,-39,-11,1,4,2,3,2020-10-18 23:19:50.967
4,4,-39,-11,1,4,2,3,2020-10-18 23:19:50.973
4,4,-39,-11,1,4,2,3,2020-10-18 23:19:50.979
11,6,-10,-11,5,4,3,6,2020-10-18 23:19:50.984
3,2,45,-3,-4,0,0,3,2020-10-18 23:19:50.990
3,2,45,-3,-4,0,0,3,2020-10-18 23:19:50.995
3,2,45,-3,-4,0,0,3,2020-10-18 23:19:51.002
-22,-46,9,-5,-7,-7,-9,-14,2020-10-18 23:19:51.008
12,2,-36,0,1,-1,1,3,2020-10-18 23:19:51.013
12,2,-36,0,1,-1,1,3,2020-10-18 23:19:51.018
12,2,-36,0,1,-1,1,3,2020-10-18 23:19:51.023
12,2,-36,0,1,-1,1,3,2020-10-18 23:19:51.030
-5,-8,17,5,-1,-1,0,-1,2020-10-18 23:19:51.035
-6,-10,-27,-9,-3,-2,-3,-4,2020-10-18 23:19:51.042
11,22,9,1,7,7,7,9,2020-10-18 23:19:51.047
11,22,9,1,7,7,7,9,2020-10-18 23:19:51.052
11,22,9,1,7,7,7,9,2020-10-18 23:19:51.058
1,4,-18,2,4,2,1,1,2020-10-18 23:19:51.064
1,4,-18,2,4,2,1,1,2020-10-18 23:19:51.070
1,4,-18,2,4,2,1,1,2020-10-18 23:19:51.076
1,4,-18,2,4,2,1,1,2020-10-18 23:19:51.082
-3,-9,4,7,4,1,-1,-1,2020-10-18 23:19:51.087
-3,-9,4,7,4,1,-1,-1,2020-10-18 23:19:51.093
-3,-9,4,7,4,1,-1,-1,2020-10-18 23:19:51.098
-4,8,-34,7,-2,-2,-3,-6,2020-10-18 23:19:51.104
-10,-19,-35,3,-5,-3,-4,-6,2020-10-18 23:19:51.110
-10,-19,-35,3,-5,-3,-4,-6,2020-10-18 23:19:51.122
6,14,100,-2,4,4,3,2,2020-10-18 23:19:51.128
-1,4,19,-9,-3,-3,-2,-1,2020-10-18 23:19:51.134
-9,-27,-30,-11,-7,-5,-5,-6,2020-10-18 23:19:51.141
-5,0,-65,-18,-7,-3,-3,-5,2020-10-18 23:19:51.146
-5,0,-65,-18,-7,-3,-3,-5,2020-10-18 23:19:51.152
-5,0,-65,-18,-7,-3,-3,-5,2020-10-18 23:19:51.158
-3,-3,-15,-6,-2,-1,-1,0,2020-10-18 23:19:51.163
-1,2,50,3,1,-1,0,0,2020-10-18 23:19:51.169
-1,2,50,3,1,-1,0,0,2020-10-18 23:19:51.174
-1,2,50,3,1,-1,0,0,2020-10-18 23:19:51.180
13,29,-6,8,9,6,6,9,2020-10-18 23:19:51.186
-10,-7,6,6,-1,-4,-4,-6,2020-10-18 23:19:51.192
-10,-7,6,6,-1,-4,-4,-6,2020-10-18 23:19:51.197
-10,-7,6,6,-1,-4,-4,-6,2020-10-18 23:19:51.203
5,24,21,-5,1,1,1,2,2020-10-18 23:19:51.209
5,24,21,-5,1,1,1,2,2020-10-18 23:19:51.214
-1,-17,-6,-2,-1,-3,-4,-1,2020-10-18 23:19:51.219
-1,-17,-6,-2,-1,-3,-4,-1,2020-10-18 23:19:51.225
0,-13,0,1,-4,-1,-2,-1,2020-10-18 23:19:51.231
0,-13,0,1,-4,-1,-2,-1,2020-10-18 23:19:51.236
0,-13,0,1,-4,-1,-2,-1,2020-10-18 23:19:51.241
5,4,22,-8,-1,2,2,2,2020-10-18 23:19:51.247
-1,-9,0,-7,2,-1,-2,-1,2020-10-18 23:19:51.252
-1,-9,0,-7,2,-1,-2,-1,2020-10-18 23:19:51.258
-1,-9,0,-7,2,-1,-2,-1,2020-10-18 23:19:51.263
6,29,-14,20,5,2,2,2,2020-10-18 23:19:51.269
6,29,-14,20,5,2,2,2,2020-10-18 23:19:51.275
-12,-26,-43,4,-5,-6,-6,-8,2020-10-18 23:19:51.281
2,-5,5,-15,2,0,3,1,2020-10-18 23:19:51.286
2,-5,5,-15,2,0,3,1,2020-10-18 23:19:51.293
2,-5,5,-15,2,0,3,1,2020-10-18 23:19:51.299
1,5,-7,-7,-4,-2,-1,-1,2020-10-18 23:19:51.305
-4,-15,-11,-1,-1,1,0,-1,2020-10-18 23:19:51.311
-4,-15,-11,-1,-1,1,0,-1,2020-10-18 23:19:51.316
-4,-15,-11,-1,-1,1,0,-1,2020-10-18 23:19:51.321
4,7,11,8,2,2,1,1,2020-10-18 23:19:51.327
4,7,11,8,2,2,1,1,2020-10-18 23:19:51.332
4,7,11,8,2,2,1,1,2020-10-18 23:19:51.338
0,0,5,7,-1,0,-1,0,2020-10-18 23:19:51.345
-5,-20,-32,13,-2,-3,-5,-3,2020-10-18 23:19:51.350
-5,-20,-32,13,-2,-3,-5,-3,2020-10-18 23:19:51.356
-5,-20,-32,13,-2,-3,-5,-3,2020-10-18 23:19:51.361
9,-2,26,6,1,3,5,5,2020-10-18 23:19:51.367
-24,-29,12,-31,-14,-18,-22,-15,2020-10-18 23:19:51.373
-24,-29,12,-31,-14,-18,-22,-15,2020-10-18 23:19:51.378
-24,-29,12,-31,-14,-18,-22,-15,2020-10-18 23:19:51.384
-3,-11,-57,10,3,2,2,0,2020-10-18 23:19:51.390
-3,-11,-57,10,3,2,2,0,2020-10-18 23:19:51.396
5,13,-24,-20,-5,-5,2,2,2020-10-18 23:19:51.402
-4,1,-51,-5,4,1,0,-1,2020-10-18 23:19:51.408
-4,1,-51,-5,4,1,0,-1,2020-10-18 23:19:51.414
-4,1,-51,-5,4,1,0,-1,2020-10-18 23:19:51.419
12,14,27,20,0,3,21,17,2020-10-18 23:19:51.426
0,19,73,1,-6,-1,-2,-2,2020-10-18 23:19:51.431
0,19,73,1,-6,-1,-2,-2,2020-10-18 23:19:51.437
0,19,73,1,-6,-1,-2,-2,2020-10-18 23:19:51.444
4,-1,-23,-33,1,3,2,3,2020-10-18 23:19:51.450
4,-1,-23,-33,1,3,2,3,2020-10-18 23:19:51.457
7,35,119,61,22,13,3,2,2020-10-18 23:19:51.463
-30,-10,5,-3,2,-6,-35,-48,2020-10-18 23:19:51.468
-30,-10,5,-3,2,-6,-35,-48,2020-10-18 23:19:51.474
-30,-10,5,-3,2,-6,-35,-48,2020-10-18 23:19:51.479
-30,-10,5,-3,2,-6,-35,-48,2020-10-18 23:19:51.485
-4,-1,-35,-27,7,7,15,15,2020-10-18 23:19:51.491
77,127,127,56,52,44,56,60,2020-10-18 23:19:51.497
77,127,127,56,52,44,56,60,2020-10-18 23:19:51.502
-4,-17,-4,-54,-21,-7,17,11,2020-10-18 23:19:51.508
-4,-17,-4,-54,-21,-7,17,11,2020-10-18 23:19:51.514
-24,-13,-6,-4,-13,-7,2,-1,2020-10-18 23:19:51.519
-24,-13,-6,-4,-13,-7,2,-1,2020-10-18 23:19:51.526
7,-5,24,3,-3,0,6,16,2020-10-18 23:19:51.531
7,-5,24,3,-3,0,6,16,2020-10-18 23:19:51.537
-33,-48,-109,8,-21,-24,-39,-52,2020-10-18 23:19:51.549
0,4,-77,-13,8,3,1,-6,2020-10-18 23:19:51.555
0,4,-77,-13,8,3,1,-6,2020-10-18 23:19:51.561
-9,-22,15,10,-10,-7,-7,-12,2020-10-18 23:19:51.567
-9,-22,15,10,-10,-7,-7,-12,2020-10-18 23:19:51.572
-9,-22,15,10,-10,-7,-7,-12,2020-10-18 23:19:51.578
8,20,1,7,21,13,7,12,2020-10-18 23:19:51.584
-26,-33,-19,-13,-13,-12,-18,-30,2020-10-18 23:19:51.589
-26,-33,-19,-13,-13,-12,-18,-30,2020-10-18 23:19:51.595
-26,-33,-19,-13,-13,-12,-18,-30,2020-10-18 23:19:51.602
3,30,85,-26,-3,-3,7,13,2020-10-18 23:19:51.609
-22,-31,-32,-9,-10,-10,-18,-14,2020-10-18 23:19:51.615
-22,-31,-32,-9,-10,-10,-18,-14,2020-10-18 23:19:51.620
13,7,-13,31,12,3,7,14,2020-10-18 23:19:51.627
13,7,-13,31,12,3,7,14,2020-10-18 23:19:51.633
-13,-11,34,-6,-8,-7,-8,-6,2020-10-18 23:19:51.640
6,-5,-23,-3,4,-2,-11,3,2020-10-18 23:19:51.646
6,1,-4,-1,-9,-2,23,14,2020-10-18 23:19:51.652
6,1,-4,-1,-9,-2,23,14,2020-10-18 23:19:51.659
0,-9,-27,-4,3,-2,-15,-11,2020-10-18 23:19:51.665
-5,-8,-15,0,-8,0,-5,-4,2020-10-18 23:19:51.673
-5,-8,-15,0,-8,0,-5,-4,2020-10-18 23:19:51.678
-5,-8,-15,0,-8,0,-5,-4,2020-10-18 23:19:51.685
2,-1,15,12,-1,7,-4,2,2020-10-18 23:19:51.691
2,-1,15,12,-1,7,-4,2,2020-10-18 23:19:51.698
-1,-6,-16,10,4,6,-7,-4,2020-10-18 23:19:51.704
3,-7,-19,19,-1,1,-8,-2,2020-10-18 23:19:51.710
3,-7,-19,19,-1,1,-8,-2,2020-10-18 23:19:51.716
-2,-3,-10,10,2,14,-4,-1,2020-10-18 23:19:51.723
-2,-3,-10,10,2,14,-4,-1,2020-10-18 23:19:51.729
-2,-3,-7,5,-2,-5,-2,-3,2020-10-18 23:19:51.735
-2,-3,-7,5,-2,-5,-2,-3,2020-10-18 23:19:51.741
-5,-2,7,-5,-1,-1,5,-4,2020-10-18 23:19:51.747
-5,-2,7,-5,-1,-1,5,-4,2020-10-18 23:19:51.753
7,-3,-6,-5,-11,-10,-1,1,2020-10-18 23:19:51.764
5,-2,7,4,-3,-11,-3,7,2020-10-18 23:19:51.771
5,-2,7,4,-3,-11,-3,7,2020-10-18 23:19:51.779
-6,-8,-14,-5,-2,1,0,-4,2020-10-18 23:19:51.785
-2,6,8,2,-2,4,-2,-1,2020-10-18 23:19:51.792
-2,6,8,2,-2,4,-2,-1,2020-10-18 23:19:51.798
-2,6,8,2,-2,4,-2,-1,2020-10-18 23:19:51.805
0,2,8,4,8,5,-5,0,2020-10-18 23:19:51.811
0,2,8,4,8,5,-5,0,2020-10-18 23:19:51.817
-5,0,-1,-2,-2,1,2,-2,2020-10-18 23:19:51.824
0,2,0,-4,-4,-1,1,-1,2020-10-18 23:19:51.830
0,2,0,-4,-4,-1,1,-1,2020-10-18 23:19:51.836
0,2,0,-4,-4,-1,1,-1,2020-10-18 23:19:51.843
-1,0,3,-1,1,2,0,0,2020-10-18 23:19:51.849
-2,0,10,1,-2,-4,-4,0,2020-10-18 23:19:51.855
-2,0,10,1,-2,-4,-4,0,2020-10-18 23:19:51.862
-2,-3,-6,0,-2,-2,1,-3,2020-10-18 23:19:51.867
-2,-3,-6,0,-2,-2,1,-3,2020-10-18 23:19:51.874
3,3,0,3,1,-1,-1,-1,2020-10-18 23:19:51.880
-2,-3,-1,1,-2,1,-1,2,2020-10-18 23:19:51.886
-2,0,1,3,0,-1,-2,-2,2020-10-18 23:19:51.893
-2,0,1,3,0,-1,-2,-2,2020-10-18 23:19:51.899
2,-3,-4,0,0,-2,-3,-1,2020-10-18 23:19:51.905
2,-3,-4,0,0,-2,-3,-1,2020-10-18 23:19:51.912
1,-1,2,0,-2,-3,-3,-1,2020-10-18 23:19:51.918
1,-1,2,0,-2,-3,-3,-1,2020-10-18 23:19:51.924
-1,-1,0,0,7,2,1,1,2020-10-18 23:19:51.930
-1,-1,0,0,7,2,1,1,2020-10-18 23:19:51.944
-2,-3,-1,2,-5,-14,-4,-1,2020-10-18 23:19:51.950
-2,-3,-1,2,-5,-14,-4,-1,2020-10-18 23:19:51.957
1,1,-2,0,1,-1,-1,1,2020-10-18 23:19:51.964
-2,-2,-2,-1,-3,-1,-1,-2,2020-10-18 23:19:51.970
-2,-2,-2,-1,-3,-1,-1,-2,2020-10-18 23:19:51.976
-2,-2,-2,-1,-3,-1,-1,-2,2020-10-18 23:19:51.983
-2,0,-1,0,-3,4,0,-2,2020-10-18 23:19:51.989
-2,0,-1,0,-3,4,0,-2,2020-10-18 23:19:51.995
0,0,-2,1,0,2,0,-1,2020-10-18 23:19:52.002
0,0,-2,1,0,2,0,-1,2020-10-18 23:19:52.008
0,0,-1,-2,-1,-3,-9,-1,2020-10-18 23:19:52.014
0,0,-1,-2,-1,-3,-9,-1,2020-10-18 23:19:52.020
-1,0,0,-1,-1,-21,-2,-1,2020-10-18 23:19:52.027
-1,0,-1,-1,-3,1,2,-2,2020-10-18 23:19:52.033
-1,0,-1,-1,-3,1,2,-2,2020-10-18 23:19:52.038
-1,0,-1,-1,-3,1,2,-2,2020-10-18 23:19:52.045
-1,-1,0,0,-5,-1,2,1,2020-10-18 23:19:52.051
-1,-1,0,0,-5,-1,2,1,2020-10-18 23:19:52.058
-2,-1,-1,0,0,7,1,0,2020-10-18 23:19:52.064
-4,-3,-1,-1,-2,8,0,-3,2020-10-18 23:19:52.070
-4,-3,-1,-1,-2,8,0,-3,2020-10-18 23:19:52.076
-2,0,-1,-3,-3,7,0,0,2020-10-18 23:19:52.083
-2,0,-1,-3,-3,7,0,0,2020-10-18 23:19:52.089
-1,0,-1,4,0,-29,-3,1,2020-10-18 23:19:52.095
-1,0,-1,4,0,-29,-3,1,2020-10-18 23:19:52.102
-2,-1,0,3,1,2,-2,-2,2020-10-18 23:19:52.108
1,0,-1,-2,4,-5,0,0,2020-10-18 23:19:52.114
0,0,1,-3,-2,0,1,-1,2020-10-18 23:19:52.120
0,0,1,-3,-2,0,1,-1,2020-10-18 23:19:52.127
-1,-1,2,0,-1,3,-1,-2,2020-10-18 23:19:52.132
-1,-1,2,0,-1,3,-1,-2,2020-10-18 23:19:52.139
0,0,-3,0,2,4,0,1,2020-10-18 23:19:52.146
-2,-2,-1,-6,3,7,3,-1,2020-10-18 23:19:52.151
-2,-2,-1,-6,3,7,3,-1,2020-10-18 23:19:52.158
-2,-2,-1,-6,3,7,3,-1,2020-10-18 23:19:52.164
2,2,4,24,1,-21,-9,0,2020-10-18 23:19:52.171
-1,-3,-3,-2,4,6,1,1,2020-10-18 23:19:52.177
-1,-3,-3,-2,4,6,1,1,2020-10-18 23:19:52.183
-4,-3,3,0,1,1,2,-2,2020-10-18 23:19:52.189
0,1,-3,-4,-1,-16,-5,-1,2020-10-18 23:19:52.196
-4,-5,-3,-2,-10,7,3,-2,2020-10-18 23:19:52.202
-4,-5,-3,-2,-10,7,3,-2,2020-10-18 23:19:52.209
-1,-1,-1,-3,10,11,1,-3,2020-10-18 23:19:52.215
-1,-1,-1,-3,10,11,1,-3,2020-10-18 23:19:52.221
2,-3,-9,-26,-25,-14,2,1,2020-10-18 23:19:52.228
-1,-2,-13,-34,-11,-5,-3,-2,2020-10-18 23:19:52.234
-1,-2,-13,-34,-11,-5,-3,-2,2020-10-18 23:19:52.240
-1,-2,-13,-34,-11,-5,-3,-2,2020-10-18 23:19:52.247
0,-1,3,17,-2,-2,1,1,2020-10-18 23:19:52.252
0,-1,3,17,-2,-2,1,1,2020-10-18 23:19:52.259
-1,0,4,9,11,19,5,0,2020-10-18 23:19:52.266
-3,-1,0,7,-2,-5,-5,-2,2020-10-18 23:19:52.271
-3,-1,0,7,-2,-5,-5,-2,2020-10-18 23:19:52.279
-3,-1,0,7,-2,-5,-5,-2,2020-10-18 23:19:52.285
2,-1,3,25,23,32,15,5,2020-10-18 23:19:52.291
2,-1,3,25,23,32,15,5,2020-10-18 23:19:52.297
2,2,0,-7,-1,4,0,3,2020-10-18 23:19:52.304
-2,-4,-2,6,-1,1,-1,-4,2020-10-18 23:19:52.309
-2,-4,-2,6,-1,1,-1,-4,2020-10-18 23:19:52.315
-2,-4,-2,6,-1,1,-1,-4,2020-10-18 23:19:52.322
-2,1,0,-19,1,0,-19,-3,2020-10-18 23:19:52.334
-3,-2,5,5,5,-9,-24,-7,2020-10-18 23:19:52.342
-3,-2,5,5,5,-9,-24,-7,2020-10-18 23:19:52.348
-2,-4,-10,14,15,34,54,3,2020-10-18 23:19:52.354
5,3,6,9,-8,8,12,4,2020-10-18 23:19:52.361
5,3,6,9,-8,8,12,4,2020-10-18 23:19:52.367
-1,-2,-5,-1,-5,-9,1,-1,2020-10-18 23:19:52.372
-1,-2,-5,-1,-5,-9,1,-1,2020-10-18 23:19:52.379
1,1,1,-3,-21,8,19,-1,2020-10-18 23:19:52.385
-1,0,7,16,8,-4,-8,-1,2020-10-18 23:19:52.392
-1,0,7,16,8,-4,-8,-1,2020-10-18 23:19:52.398
-1,0,7,16,8,-4,-8,-1,2020-10-18 23:19:52.405
-1,0,7,16,8,-4,-8,-1,2020-10-18 23:19:52.411
1,0,-8,-17,-17,-18,-1,1,2020-10-18 23:19:52.417
1,0,-8,-17,-17,-18,-1,1,2020-10-18 23:19:52.424
1,1,4,-3,17,-2,1,0,2020-10-18 23:19:52.430
1,1,4,-3,17,-2,1,0,2020-10-18 23:19:52.437
1,1,4,-3,17,-2,1,0,2020-10-18 23:19:52.444
1,1,4,-3,17,-2,1,0,2020-10-18 23:19:52.450
-1,2,2,-7,-7,-19,-2,1,2020-10-18 23:19:52.457
-1,2,2,-7,-7,-19,-2,1,2020-10-18 23:19:52.464
-3,4,8,2,21,23,22,1,2020-10-18 23:19:52.470
0,0,-1,15,40,29,8,-1,2020-10-18 23:19:52.476
0,0,-1,15,40,29,8,-1,2020-10-18 23:19:52.483
-1,-2,-1,-5,-12,-9,-19,-3,2020-10-18 23:19:52.488
3,3,11,12,-5,2,-14,1,2020-10-18 23:19:52.495
3,3,11,12,-5,2,-14,1,2020-10-18 23:19:52.502
1,-4,-2,-6,2,29,14,2,2020-10-18 23:19:52.508
-1,-1,-1,4,-12,2,7,1,2020-10-18 23:19:52.514
-1,-1,-1,4,-12,2,7,1,2020-10-18 23:19:52.521
1,1,4,-15,-14,0,-7,0,2020-10-18 23:19:52.527
1,1,4,-15,-14,0,-7,0,2020-10-18 23:19:52.533
