Avg EMG - Pod01,Avg EMG - Pod02,Avg EMG - Pod03,Avg EMG - Pod04,Avg EMG - Pod05,Avg EMG - Pod06,Avg EMG - Pod07,Avg EMG - Pod08,Start Timestamp
1,3,4,7,4,1,4,1,1,1,2020-10-18 23:19:36.721
1,8,3,2,9,5,2,2,4,1,2,1,1,4,2020-10-18 23:19:36.736
2,3,6,8,8,5,4,2,2,1,2,0,8,1,4,2020-10-18 23:19:36.741
1,6,2,4,6,2,4,1,4,1,0,6,0,6,2020-10-18 23:19:36.745
2,4,12,4,5,2,1,8,1,4,1,1,2,2020-10-18 23:19:36.755
2,4,5,6,18,6,6,4,2,2,1,8,1,4,1,8,2020-10-18 23:19:36.762
2,5,2,17,4,5,4,1,4,1,6,1,4,1,4,2020-10-18 23:19:36.769
2,5,18,8,4,8,1,6,1,8,1,6,1,6,2020-10-18 23:19:36.777
2,2,5,4,18,5,4,2,1,6,1,4,1,8,2020-10-18 23:19:36.783
2,4,4,11,4,5,4,1,8,1,1,1,4,2020-10-18 23:19:36.789
1,6,2,6,5,6,4,2,1,4,0,4,1,0,8,2020-10-18 23:19:36.795
1,4,3,7,8,4,2,1,4,0,8,0,8,0,8,2020-10-18 23:19:36.803
1,4,3,9,4,4,1,4,0,8,0,4,0,8,2020-10-18 23:19:36.810
1,2,2,4,13,2,2,6,1,2,1,2,0,4,0,8,2020-10-18 23:19:36.816
1,2,2,13,2,1,4,1,2,1,6,1,1,2,2020-10-18 23:19:36.821
1,2,1,8,15,1,4,1,2,1,6,0,8,1,4,2020-10-18 23:19:36.827
1,2,1,8,12,2,4,1,4,1,4,1,4,1,6,2020-10-18 23:19:36.833
1,2,1,8,9,3,4,1,6,1,2,2,1,8,2020-10-18 23:19:36.839
1,4,2,4,6,6,3,2,1,4,1,2,1,8,2020-10-18 23:19:36.846
1,2,2,8,6,3,1,2,0,6,1,6,1,2,2020-10-18 23:19:36.852
1,2,2,2,7,8,2,6,1,6,0,6,1,6,1,2,2020-10-18 23:19:36.858
1,2,2,8,8,1,4,1,8,0,4,1,2,1,2020-10-18 23:19:36.869
1,2,1,8,9,8,0,2,2,0,2,0,8,0,8,2020-10-18 23:19:36.875
0,8,1,2,9,2,0,6,2,0,4,1,0,8,2020-10-18 23:19:36.881
1,4,2,6,8,4,1,2,2,2,0,8,1,4,1,2,2020-10-18 23:19:36.886
2,2,2,8,8,6,1,6,1,6,0,8,2,2,2,2020-10-18 23:19:36.893
3,3,8,8,2,1,0,8,3,2,8,2020-10-18 23:19:36.899
3,8,3,2,9,2,4,0,4,0,8,3,8,3,6,2020-10-18 23:19:36.905
4,2,8,11,4,2,4,0,8,0,4,3,8,3,4,2020-10-18 23:19:36.911
3,4,1,2,11,6,2,6,0,8,0,3,4,3,8,2020-10-18 23:19:36.916
2,6,0,8,11,3,2,1,2,0,2,6,3,6,2020-10-18 23:19:36.922
1,8,0,8,15,6,3,2,1,8,0,4,2,2,6,2020-10-18 23:19:36.927
1,0,8,20,2,3,2,2,4,0,8,1,4,1,6,2020-10-18 23:19:36.934
1,1,2,23,6,3,2,2,6,1,2,1,6,1,6,2020-10-18 23:19:36.940
1,1,6,28,8,2,6,2,8,1,6,1,8,0,8,2020-10-18 23:19:36.946
1,2,2,28,3,2,2,6,1,8,1,8,0,6,2020-10-18 23:19:36.952
1,2,2,8,24,2,4,2,2,4,1,6,1,4,1,2020-10-18 23:19:36.958
1,4,3,4,20,4,5,2,2,2,1,4,1,1,4,2020-10-18 23:19:36.964
2,3,2,17,6,8,4,2,6,1,6,0,8,2,2020-10-18 23:19:36.970
2,4,5,2,13,8,9,2,6,1,2,1,2,6,2020-10-18 23:19:36.977
2,6,5,2,23,7,6,2,8,1,4,0,8,2,2,2020-10-18 23:19:36.983
2,6,4,8,30,6,4,2,8,1,6,0,8,2,2020-10-18 23:19:36.989
2,6,4,4,37,5,2,2,8,1,8,0,8,1,8,2020-10-18 23:19:36.995
2,4,4,4,38,4,3,6,1,8,1,8,2,2,2020-10-18 23:19:37.000
2,2,3,8,46,5,1,6,2,6,1,6,1,6,2020-10-18 23:19:37.006
2,2,5,46,6,7,2,1,6,3,1,8,1,6,2020-10-18 23:19:37.012
2,6,5,4,44,6,8,2,2,6,3,2,3,2,2020-10-18 23:19:37.018
3,5,8,42,6,9,2,3,6,3,4,4,2,2,4,2020-10-18 23:19:37.024
3,2,7,42,4,7,2,3,8,4,7,5,6,2020-10-18 23:19:37.030
3,6,6,6,37,4,8,3,6,4,4,11,9,4,2020-10-18 23:19:37.035
4,8,6,28,4,3,6,5,5,10,8,10,8,2020-10-18 23:19:37.042
4,8,9,4,34,6,5,3,8,5,2,10,8,12,2020-10-18 23:19:37.047
4,8,12,8,40,8,6,4,2,6,5,4,10,8,13,2,2020-10-18 23:19:37.053
5,4,14,8,38,6,8,5,2,5,2,7,4,10,8,2020-10-18 23:19:37.059
5,4,14,2,35,8,2,5,6,4,6,4,6,7,6,2020-10-18 23:19:37.065
5,8,13,8,41,4,17,2,5,8,4,5,2,8,2,2020-10-18 23:19:37.072
6,2,11,6,27,6,18,4,7,2,5,10,8,8,2,2020-10-18 23:19:37.079
5,4,9,8,14,2,16,9,4,6,11,8,6,8,2020-10-18 23:19:37.085
4,9,12,14,6,8,2,4,13,2,5,6,2020-10-18 23:19:37.093
4,10,8,13,2,17,4,9,4,4,6,12,4,8,2020-10-18 23:19:37.108
2,8,12,6,7,6,10,2,9,2,5,11,6,2,6,2020-10-18 23:19:37.113
4,4,11,4,9,4,13,4,8,2,3,6,7,8,5,6,2020-10-18 23:19:37.119
4,6,9,2,10,2,16,2,6,4,3,8,10,2,5,6,2020-10-18 23:19:37.126
4,8,9,19,8,22,8,5,3,6,9,6,5,4,2020-10-18 23:19:37.131
4,2,8,8,27,4,26,6,3,8,2,6,11,5,6,2020-10-18 23:19:37.137
3,6,8,6,35,30,4,2,6,1,6,12,4,5,8,2020-10-18 23:19:37.144
1,2,7,8,33,2,30,8,3,2,2,10,4,2,4,2020-10-18 23:19:37.151
1,2,8,34,2,34,2,6,2,6,8,3,6,2020-10-18 23:19:37.160
1,8,7,33,6,27,6,5,8,3,7,4,2020-10-18 23:19:37.166
2,4,6,33,21,5,6,3,4,6,4,4,2020-10-18 23:19:37.171
2,6,4,25,2,16,5,6,3,2,8,2,4,4,2020-10-18 23:19:37.179
3,2,5,4,32,4,11,4,6,3,7,4,4,2,2020-10-18 23:19:37.188
3,8,7,6,34,6,11,8,3,2,2,6,7,2020-10-18 23:19:37.193
3,8,9,29,6,18,8,4,2,6,2,10,8,2020-10-18 23:19:37.199
3,2,10,4,22,6,19,8,4,2,4,7,8,11,2,2020-10-18 23:19:37.208
3,2,10,2,23,8,20,6,4,2,8,5,2,11,2020-10-18 23:19:37.215
3,8,11,8,18,21,4,2,8,6,11,2,2020-10-18 23:19:37.222
4,6,12,2,15,16,6,2,8,3,6,2,8,2,2020-10-18 23:19:37.229
5,4,12,6,12,12,2,1,6,3,2,6,4,5,2,2020-10-18 23:19:37.235
6,8,13,11,13,8,1,4,2,8,5,2,5,6,2020-10-18 23:19:37.241
8,16,9,14,1,3,5,7,2020-10-18 23:19:37.247
8,16,9,14,1,3,5,7,2020-10-18 23:19:37.252
6,6,14,4,9,2,12,1,2,2,6,5,2,5,8,2020-10-18 23:19:37.257
7,4,13,10,2,9,6,1,8,3,5,5,2,2020-10-18 23:19:37.264
6,6,14,2,22,6,8,6,2,2,2,4,5,4,4,4,2020-10-18 23:19:37.269
5,8,15,4,35,7,6,2,6,1,8,5,8,3,6,2020-10-18 23:19:37.278
4,6,12,8,36,2,16,4,8,1,4,5,6,2,4,2020-10-18 23:19:37.284
4,8,11,8,37,2,26,4,6,8,1,4,5,2,2,4,2020-10-18 23:19:37.291
4,2,14,2,40,6,27,6,2,0,8,6,2,6,2020-10-18 23:19:37.297
5,2,14,32,6,26,2,5,8,1,2,6,6,9,8,2020-10-18 23:19:37.303
5,2,12,2,23,8,36,6,10,4,1,4,10,10,4,2020-10-18 23:19:37.309
5,6,14,2,26,2,37,6,13,2,1,4,14,11,4,2020-10-18 23:19:37.316
5,4,14,24,4,27,2,11,2,1,8,16,2,11,2,2020-10-18 23:19:37.322
5,11,4,19,6,28,6,11,2,2,2,18,4,7,8,2020-10-18 23:19:37.329
3,8,8,2,13,8,29,4,11,2,2,4,17,4,3,8,2020-10-18 23:19:37.335
4,8,6,13,21,2,7,2,3,14,2,3,4,2020-10-18 23:19:37.342
3,4,8,6,14,2,10,2,2,3,4,10,4,3,6,2020-10-18 23:19:37.349
4,4,9,2,18,2,17,6,2,4,3,8,5,2020-10-18 23:19:37.361
4,8,9,21,4,19,8,3,4,3,8,6,2,5,8,2020-10-18 23:19:37.366
6,9,4,25,6,22,6,4,4,4,8,7,6,7,2,2020-10-18 23:19:37.392
6,4,11,30,27,4,5,2,6,4,7,2,2020-10-18 23:19:37.403
7,6,13,32,4,34,2,4,8,5,8,5,8,6,6,2020-10-18 23:19:37.412
6,8,16,6,36,2,26,2,5,5,6,6,2,5,4,2020-10-18 23:19:37.418
5,6,15,4,31,8,22,4,4,6,4,4,4,8,5,4,2020-10-18 23:19:37.425
4,4,14,2,27,4,18,6,4,2,3,2,3,4,5,4,2020-10-18 23:19:37.431
3,4,11,4,18,8,18,2,4,6,2,2,3,5,4,2020-10-18 23:19:37.436
2,4,8,2,15,6,10,4,4,8,1,2,4,4,5,4,2020-10-18 23:19:37.445
2,4,5,12,4,10,8,4,8,1,4,5,2,6,2020-10-18 23:19:37.452
2,2,6,2,18,10,6,5,1,2,6,2,5,2020-10-18 23:19:37.459
2,8,8,27,12,5,1,4,7,2,5,8,2020-10-18 23:19:37.467
2,9,8,35,8,6,2,4,6,1,8,9,7,6,2020-10-18 23:19:37.474
1,8,8,6,31,2,8,4,2,8,7,4,2020-10-18 23:19:37.480
2,10,6,36,6,8,2,3,2,8,8,2,8,2020-10-18 23:19:37.486
2,2,12,6,42,8,4,2,3,6,8,4,8,6,2020-10-18 23:19:37.491
2,4,13,2,44,7,1,2,4,8,6,7,4,2020-10-18 23:19:37.498
3,4,11,8,38,6,8,1,4,4,2,8,5,4,2020-10-18 23:19:37.504
4,4,12,6,38,8,5,2,1,2,4,2,7,8,5,6,2020-10-18 23:19:37.510
5,10,2,29,6,5,2,1,4,3,6,6,4,5,2020-10-18 23:19:37.516
4,8,7,4,18,8,13,4,1,8,3,4,6,4,2020-10-18 23:19:37.522
4,6,4,6,8,21,6,2,2,2,4,2,8,3,2020-10-18 23:19:37.528
3,6,3,8,5,2,28,6,1,6,2,1,8,2,8,2020-10-18 23:19:37.534
2,4,3,7,31,2,3,2,2,1,6,2,6,2020-10-18 23:19:37.543
1,8,2,2,6,8,30,8,2,8,1,8,1,6,2,6,2020-10-18 23:19:37.548
2,1,8,8,2,22,2,2,4,1,4,2,3,2020-10-18 23:19:37.554
1,6,2,9,2,13,8,3,2,2,1,8,2,8,2020-10-18 23:19:37.561
1,4,2,2,10,9,6,3,8,2,2,1,8,2,6,2020-10-18 23:19:37.568
1,8,4,6,6,6,8,2,6,2,6,2,4,3,2,2020-10-18 23:19:37.575
2,6,4,8,5,4,7,4,3,2,3,2,2,2,8,2020-10-18 23:19:37.585
2,4,8,4,9,4,7,8,3,4,3,4,2,4,2,2020-10-18 23:19:37.594
3,4,9,4,8,4,8,2,8,2,6,2,6,2,2020-10-18 23:19:37.605
4,11,6,12,6,4,8,2,2,2,2,3,4,3,6,2020-10-18 23:19:37.616
4,4,12,6,17,6,5,8,2,4,1,2,3,4,4,2,2020-10-18 23:19:37.628
3,2,12,6,20,7,4,2,4,1,2,3,4,4,4,2020-10-18 23:19:37.639
5,14,14,8,8,4,2,4,1,8,3,6,5,6,2020-10-18 23:19:37.651
6,2,13,6,15,6,7,8,2,6,3,5,8,7,2,2020-10-18 23:19:37.660
7,6,12,11,4,6,4,2,6,4,6,7,2,7,2,2020-10-18 23:19:37.672
9,10,4,7,2,5,2,6,6,2,8,6,7,2,2020-10-18 23:19:37.678
9,2,13,5,2,4,6,2,5,8,9,2,7,4,2020-10-18 23:19:37.685
9,6,10,2,6,8,5,2,6,5,6,9,2,8,4,2020-10-18 23:19:37.692
10,11,2,7,8,7,2,8,4,6,8,8,8,2020-10-18 23:19:37.697
8,4,10,7,6,8,4,4,3,6,6,6,7,8,2020-10-18 23:19:37.703
6,8,8,8,7,4,9,6,2,6,5,2,6,8,2020-10-18 23:19:37.710
7,2,5,4,11,2,9,6,6,6,2,6,4,6,7,4,2020-10-18 23:19:37.716
5,4,3,2,13,8,10,2,6,4,2,2,3,6,6,6,2020-10-18 23:19:37.723
2,8,2,4,13,9,4,6,6,1,8,3,4,4,2020-10-18 23:19:37.729
2,2,3,8,13,4,9,6,5,4,1,4,2,6,3,6,2020-10-18 23:19:37.735
2,4,2,15,4,23,6,4,8,2,2,8,3,2020-10-18 23:19:37.742
1,6,4,6,13,6,36,5,8,3,3,8,1,8,2020-10-18 23:19:37.749
1,6,7,2,10,6,39,8,6,2,3,3,8,2,2020-10-18 23:19:37.754
2,4,8,4,11,45,6,2,3,3,4,3,6,2020-10-18 23:19:37.759
3,2,8,13,4,46,4,5,2,3,4,4,6,4,2020-10-18 23:19:37.766
3,6,8,6,14,2,34,3,6,2,8,5,2,4,2,2020-10-18 23:19:37.771
5,10,12,2,21,4,2,8,2,4,4,6,5,2,2020-10-18 23:19:37.777
6,2,8,4,12,6,15,3,8,2,6,5,5,2,2020-10-18 23:19:37.785
7,4,6,8,13,8,6,4,8,2,8,5,4,5,2,2020-10-18 23:19:37.792
8,6,6,8,11,4,6,6,8,2,6,4,2,6,4,2020-10-18 23:19:37.797
8,2,6,2,9,10,6,8,2,4,2,4,6,2020-10-18 23:19:37.806
8,10,4,12,6,9,2,8,6,2,2,2,4,5,2020-10-18 23:19:37.812
7,6,15,4,15,10,2,8,2,4,2,4,3,6,2020-10-18 23:19:37.817
6,2,15,8,14,8,12,4,8,2,2,2,3,2020-10-18 23:19:37.823
4,8,18,2,13,19,4,12,1,8,2,2,1,8,2020-10-18 23:19:37.829
5,4,18,8,11,8,13,4,13,4,1,6,2,6,2,2020-10-18 23:19:37.835
4,2,14,9,6,15,12,8,1,6,2,4,2,6,2020-10-18 23:19:37.843
6,2,14,4,9,4,19,6,16,2,3,4,4,6,5,2,2020-10-18 23:19:37.848
9,2,19,4,11,8,23,19,5,8,7,7,2020-10-18 23:19:37.854
12,2,22,4,15,8,21,6,17,8,8,9,2,9,4,2020-10-18 23:19:37.861
14,8,27,8,20,26,20,10,2,11,6,12,2020-10-18 23:19:37.866
15,27,2,18,4,25,20,9,6,11,6,11,8,2020-10-18 23:19:37.872
12,21,4,14,8,21,16,7,2,9,2,9,6,2020-10-18 23:19:37.877
9,4,15,6,13,17,8,17,2,6,2,7,7,8,2020-10-18 23:19:37.883
6,8,9,8,11,2,14,6,18,4,5,2,4,8,6,2020-10-18 23:19:37.889
5,6,6,8,12,15,6,3,2,6,4,4,2020-10-18 23:19:37.894
4,8,6,6,7,8,15,4,23,4,3,2,2,4,2020-10-18 23:19:37.901
6,6,8,8,15,8,23,6,4,2,8,4,4,2020-10-18 23:19:37.906
8,9,4,6,4,15,4,18,6,3,6,3,2,4,4,2020-10-18 23:19:37.912
8,4,9,2,4,4,13,13,6,2,2,3,4,4,4,2020-10-18 23:19:37.923
8,6,4,3,8,10,12,6,2,3,6,4,2,2020-10-18 23:19:37.929
7,6,6,4,5,5,4,5,2,2,2,4,2,4,2020-10-18 23:19:37.934
5,2,5,5,8,3,8,5,4,1,4,3,8,3,2020-10-18 23:19:37.939
4,4,5,5,4,2,9,2,1,3,2,6,2020-10-18 23:19:37.946
4,6,6,6,4,6,6,6,13,1,6,2,4,2,2,2020-10-18 23:19:37.951
4,4,8,2,5,13,6,21,8,4,2,6,2,2,2020-10-18 23:19:37.956
5,6,9,6,4,2,20,2,30,4,6,2,3,3,2,2020-10-18 23:19:37.962
6,10,4,3,6,20,6,32,6,6,4,2,8,3,2,2020-10-18 23:19:37.967
5,2,8,6,5,8,26,2,31,6,6,6,3,6,3,6,2020-10-18 23:19:37.973
4,4,6,8,8,31,8,30,6,6,8,4,4,4,2020-10-18 23:19:37.979
4,6,5,6,7,4,29,4,22,5,4,4,4,2020-10-18 23:19:37.984
3,8,7,6,6,23,6,15,6,6,2,5,4,3,2020-10-18 23:19:37.990
3,8,9,5,6,24,15,6,9,7,4,3,2020-10-18 23:19:37.995
3,4,12,2,3,4,17,2,15,2,11,4,8,8,2,2020-10-18 23:19:38.001
3,13,6,2,4,14,8,20,4,11,2,8,8,1,4,2020-10-18 23:19:38.007
1,8,13,6,3,2,10,6,26,4,11,8,10,1,6,2020-10-18 23:19:38.012
2,6,10,6,3,2,17,32,2,8,6,8,6,2,8,2020-10-18 23:19:38.018
3,4,7,6,3,2,23,4,38,5,4,7,2,4,2020-10-18 23:19:38.023
3,2,7,6,4,2,26,8,41,2,3,2,5,4,2,2020-10-18 23:19:38.029
3,9,4,4,25,8,38,8,3,6,4,2,4,2020-10-18 23:19:38.033
3,12,4,30,38,2,3,2,6,3,2020-10-18 23:19:38.039
2,4,11,8,4,4,25,4,35,4,4,8,2,4,2,2,2020-10-18 23:19:38.046
1,4,12,6,4,4,17,6,30,2,6,2,6,2,2,2020-10-18 23:19:38.051
1,4,10,4,3,4,12,8,27,6,6,2,3,6,3,2,2020-10-18 23:19:38.056
1,2,8,8,4,2,9,8,24,2,5,6,3,8,3,2020-10-18 23:19:38.063
1,7,2,5,6,8,20,8,5,4,2,8,2020-10-18 23:19:38.068
0,4,8,8,6,4,5,4,17,6,3,6,3,6,2,4,2020-10-18 23:19:38.074
2,2,11,4,7,2,8,17,4,4,4,3,8,2,4,2020-10-18 23:19:38.080
2,8,10,6,7,8,4,14,4,4,8,4,2,2020-10-18 23:19:38.086
2,8,9,6,6,2,9,8,13,6,6,4,2,2,2020-10-18 23:19:38.091
2,8,8,6,5,4,11,2,12,8,7,2,4,4,2,2020-10-18 23:19:38.097
4,2,9,2,6,6,14,8,14,2,7,2,4,3,4,2020-10-18 23:19:38.104
4,8,10,2,6,2,13,2,10,6,5,6,2,8,3,4,2020-10-18 23:19:38.109
6,6,14,6,6,8,13,8,9,8,4,4,1,6,3,8,2020-10-18 23:19:38.115
9,2,18,6,6,2,11,6,7,6,3,2,1,2,5,2020-10-18 23:19:38.121
10,4,20,4,6,14,2,6,8,2,6,1,4,6,8,2020-10-18 23:19:38.128
9,19,4,3,9,4,6,3,1,4,6,4,2020-10-18 23:19:38.133
6,4,16,2,6,8,2,6,8,3,4,1,2,6,2,2020-10-18 23:19:38.139
4,2,12,4,6,2,16,8,12,8,5,2,2,4,6,2020-10-18 23:19:38.145
2,8,8,9,8,25,4,18,8,7,3,6,5,8,2020-10-18 23:19:38.157
2,8,10,8,19,8,20,8,6,4,3,4,4,6,2020-10-18 23:19:38.163
3,2,7,2,12,21,18,6,5,6,3,6,3,8,2020-10-18 23:19:38.168
4,4,6,4,13,2,22,2,16,4,4,8,3,8,3,2020-10-18 23:19:38.174
5,2,5,8,10,4,14,10,4,2,6,2,6,2,2,2020-10-18 23:19:38.180
6,8,2,11,8,7,4,4,6,0,8,1,2,1,4,2020-10-18 23:19:38.186
6,7,11,13,11,1,4,0,8,1,4,2020-10-18 23:19:38.192
6,7,10,8,17,4,20,8,2,4,0,8,1,8,2020-10-18 23:19:38.197
6,7,10,6,21,8,30,6,3,4,0,8,2,2,2020-10-18 23:19:38.203
6,6,9,8,12,8,23,8,30,6,6,2,1,2,2,6,2020-10-18 23:19:38.209
7,2,9,6,10,8,24,2,30,4,8,6,1,8,3,2020-10-18 23:19:38.214
7,8,12,4,13,2,21,8,20,6,10,4,2,2,3,2020-10-18 23:19:38.220
6,8,15,2,12,4,16,6,11,4,9,8,2,2,2,6,2020-10-18 23:19:38.228
6,2,14,8,12,2,11,4,2,6,9,4,2,8,2,8,2020-10-18 23:19:38.232
5,11,6,9,6,8,6,3,6,7,2,3,3,2020-10-18 23:19:38.237
6,11,2,6,6,8,6,5,2,4,8,3,2,4,2,2020-10-18 23:19:38.245
7,10,8,3,6,8,6,6,8,2,4,3,4,5,4,2020-10-18 23:19:38.250
8,4,11,7,10,4,13,4,2,8,3,4,6,2020-10-18 23:19:38.255
9,4,14,4,9,8,12,2,19,6,3,2,8,6,2020-10-18 23:19:38.262
9,6,18,11,2,12,23,6,3,2,2,6,6,2020-10-18 23:19:38.267
7,6,18,8,13,9,27,3,6,2,4,5,2020-10-18 23:19:38.273
6,4,20,8,15,8,12,8,25,4,3,4,2,6,4,4,2020-10-18 23:19:38.281
6,4,22,2,15,4,17,6,18,2,2,8,3,4,4,8,2020-10-18 23:19:38.286
5,6,23,6,17,23,12,4,3,4,3,6,4,6,2020-10-18 23:19:38.292
5,6,24,8,20,30,4,8,8,4,3,4,4,4,2020-10-18 23:19:38.298
7,25,18,4,42,8,13,5,6,2,8,4,8,2020-10-18 23:19:38.303
7,6,24,15,8,48,4,22,2,7,8,1,8,4,8,2020-10-18 23:19:38.311
9,2,26,2,13,6,48,23,8,8,1,4,5,6,2020-10-18 23:19:38.316
11,6,28,4,9,4,47,24,7,1,6,7,2020-10-18 23:19:38.322
13,4,28,4,4,6,45,6,22,8,6,1,8,8,6,2020-10-18 23:19:38.328
13,8,29,4,4,4,39,2,13,8,4,2,4,9,6,2020-10-18 23:19:38.333
14,2,30,4,4,2,32,8,4,8,2,3,10,6,2020-10-18 23:19:38.338
14,6,26,8,4,29,2,11,6,1,6,3,6,10,8,2020-10-18 23:19:38.345
11,8,25,8,3,31,6,12,5,8,4,6,9,2,2020-10-18 23:19:38.350
9,6,27,2,6,34,4,13,8,10,5,6,7,4,2020-10-18 23:19:38.356
7,4,26,6,3,4,32,4,23,2,12,8,5,6,6,2020-10-18 23:19:38.363
5,2,26,2,4,2,30,4,32,6,15,6,5,6,4,6,2020-10-18 23:19:38.368
1,8,25,8,4,8,35,2,28,8,19,6,6,8,2,6,2020-10-18 23:19:38.374
2,6,21,8,6,2,46,8,31,15,2,5,6,2,2,2020-10-18 23:19:38.381
3,4,17,8,7,6,58,4,33,2,10,8,4,4,1,8,2020-10-18 23:19:38.388
3,8,13,8,6,6,57,29,2,9,6,4,1,4,2020-10-18 23:19:38.396
4,6,9,8,6,2,65,4,19,8,7,6,4,6,1,6,2020-10-18 23:19:38.408
5,6,7,2,5,6,70,2,15,4,4,8,3,4,2,4,2020-10-18 23:19:38.414
4,8,6,6,6,66,6,19,10,6,5,4,2,8,2020-10-18 23:19:38.421
4,8,6,7,2,51,4,19,2,11,8,5,3,2,2020-10-18 23:19:38.428
5,2,7,6,9,54,18,11,2,4,8,3,2,2020-10-18 23:19:38.435
6,2,12,4,9,2,43,2,20,2,11,4,4,8,3,4,2020-10-18 23:19:38.442
7,6,25,8,9,35,4,26,6,11,8,4,6,2,8,2020-10-18 23:19:38.449
8,6,37,6,10,6,20,22,8,2,2,2,8,2020-10-18 23:19:38.457
9,2,39,9,2,26,21,2,8,4,2,2,2,8,2020-10-18 23:19:38.477
8,2,39,2,8,8,23,6,17,2,8,2,4,2,2,4,2020-10-18 23:19:38.488
8,42,6,10,6,22,4,18,2,10,2,3,2,2020-10-18 23:19:38.513
6,8,28,8,11,6,17,8,15,2,9,2,6,3,2020-10-18 23:19:38.529
6,8,28,9,8,16,2,12,8,7,2,4,3,2,2020-10-18 23:19:38.538
5,6,25,4,10,8,7,2,10,4,6,4,2,3,2020-10-18 23:19:38.555
6,24,10,8,6,6,11,2,5,4,2,4,3,2,2020-10-18 23:19:38.573
5,2,21,4,8,8,9,13,2,3,6,3,3,4,2020-10-18 23:19:38.589
5,27,4,8,11,8,15,4,8,3,3,2020-10-18 23:19:38.603
7,8,20,2,8,2,21,4,27,4,5,2,1,8,3,2,2020-10-18 23:19:38.612
8,4,21,8,20,4,36,4,4,8,2,2,4,8,2020-10-18 23:19:38.623
9,21,8,7,8,19,4,45,4,4,4,2,6,6,4,2020-10-18 23:19:38.633
9,2,20,4,10,2,16,6,44,6,7,2,4,2,6,2020-10-18 23:19:38.648
8,2,27,4,10,8,29,39,4,5,8,4,5,2020-10-18 23:19:38.658
5,4,23,12,6,21,2,34,8,5,6,4,6,2020-10-18 23:19:38.678
7,2,24,4,16,8,20,27,2,11,6,5,8,4,2,2020-10-18 23:19:38.695
7,4,27,8,17,8,27,2,25,8,12,5,6,3,4,2020-10-18 23:19:38.716
6,2,25,6,17,2,42,8,24,2,9,8,5,8,3,2,2020-10-18 23:19:38.730
8,2,14,6,16,31,6,38,6,11,6,5,6,3,4,2020-10-18 23:19:38.746
9,18,6,14,2,37,8,36,6,9,2,5,2,4,4,2020-10-18 23:19:38.757
9,8,20,9,2,40,6,39,6,7,6,4,8,4,4,2020-10-18 23:19:38.786
12,2,19,4,7,4,35,37,2,9,2,4,8,4,8,2020-10-18 23:19:38.801
12,4,18,4,5,8,20,2,40,8,9,4,3,6,5,2,2020-10-18 23:19:38.814
10,4,16,8,8,2,19,6,35,4,7,6,3,6,5,2020-10-18 23:19:38.828
8,4,13,8,4,15,2,38,8,7,2,2,4,3,6,2020-10-18 23:19:38.836
4,8,12,8,6,23,4,38,2,6,6,4,2,2,4,2020-10-18 23:19:38.852
1,2,11,8,8,31,6,37,6,6,6,1,2,2020-10-18 23:19:38.865
2,2,13,8,7,8,34,8,32,8,4,2,5,6,1,4,2020-10-18 23:19:38.873
3,6,17,6,5,2,35,6,24,4,7,8,8,2,4,2020-10-18 23:19:38.888
5,21,4,2,6,36,4,16,11,4,10,4,3,4,2020-10-18 23:19:38.897
5,22,6,4,27,2,12,10,4,9,3,4,2020-10-18 23:19:38.915
5,4,25,3,6,25,2,6,9,2,7,2,3,4,2020-10-18 23:19:38.931
4,6,26,6,4,30,2,4,9,6,8,2,6,2020-10-18 23:19:38.939
3,23,8,5,2,25,6,3,4,6,2,4,8,2,4,2020-10-18 23:19:38.957
5,23,5,4,27,2,9,6,2,8,2,4,3,4,2020-10-18 23:19:38.968
8,4,21,8,3,4,31,2,14,8,2,6,1,8,5,2,2020-10-18 23:19:38.979
9,4,18,8,5,4,22,8,21,4,5,8,5,4,5,8,2020-10-18 23:19:38.989
10,8,20,8,5,8,16,26,6,6,5,6,2020-10-18 23:19:38.998
12,8,27,2,5,4,18,6,30,2,5,6,6,4,4,8,2020-10-18 23:19:39.007
9,8,24,4,7,6,15,2,27,8,7,4,6,6,3,2020-10-18 23:19:39.017
6,8,21,6,9,8,11,8,25,4,9,2,6,8,1,2,2020-10-18 23:19:39.027
5,8,19,4,9,8,13,6,23,6,7,8,3,2,0,6,2020-10-18 23:19:39.035
4,8,17,6,11,2,18,6,25,9,3,1,2020-10-18 23:19:39.043
2,8,9,8,10,4,20,2,22,2,11,3,8,1,2,2020-10-18 23:19:39.049
6,11,4,11,2,18,19,4,9,8,4,2,2,2,2020-10-18 23:19:39.054
9,2,13,12,15,8,16,6,8,6,4,6,3,2,2020-10-18 23:19:39.061
12,4,14,6,12,8,13,6,13,8,7,4,5,4,2,2020-10-18 23:19:39.067
13,8,8,12,10,4,10,6,5,8,5,4,4,2020-10-18 23:19:39.073
14,6,9,13,4,10,6,11,6,3,4,4,4,8,2020-10-18 23:19:39.080
13,2,9,2,11,16,2,17,4,3,4,4,4,4,2,2020-10-18 23:19:39.085
10,2,12,9,2,16,2,31,2,3,8,5,4,4,2,2020-10-18 23:19:39.091
7,2,14,8,7,4,16,2,45,4,2,6,4,4,2,2020-10-18 23:19:39.098
7,2,16,8,5,8,12,43,4,8,5,6,4,6,2020-10-18 23:19:39.104
7,2,18,8,4,2,7,8,41,5,4,4,8,5,2020-10-18 23:19:39.111
5,4,18,8,6,8,1,8,40,6,7,6,6,4,4,2020-10-18 23:19:39.116
6,2,15,8,5,8,2,26,2,9,4,5,8,4,2020-10-18 23:19:39.125
7,12,8,4,8,2,2,11,8,11,2,5,6,3,6,2020-10-18 23:19:39.131
8,16,4,7,4,11,6,19,8,10,6,7,8,3,8,2020-10-18 23:19:39.139
7,2,21,6,9,8,13,2,23,2,11,6,9,4,3,2020-10-18 23:19:39.145
7,4,26,6,8,6,14,8,20,10,2,8,6,3,2,2020-10-18 23:19:39.152
6,4,27,2,8,6,21,2,32,9,7,2,2,6,2020-10-18 23:19:39.157
6,28,6,9,4,20,4,35,4,5,8,6,2,2,2,2020-10-18 23:19:39.164
4,6,26,2,8,2,10,8,31,4,5,6,4,6,1,4,2020-10-18 23:19:39.169
4,25,8,7,2,14,6,31,8,4,3,4,1,8,2020-10-18 23:19:39.177
3,4,25,4,6,2,18,4,32,2,2,4,2,2,2,2,2020-10-18 23:19:39.183
2,8,24,4,6,11,2,23,8,4,3,2,2,2020-10-18 23:19:39.189
1,6,20,6,7,16,19,4,3,1,6,2020-10-18 23:19:39.196
0,8,17,8,6,8,20,14,4,4,2,8,1,6,2020-10-18 23:19:39.201
1,11,4,6,6,18,4,10,3,8,2,8,1,4,2020-10-18 23:19:39.208
1,5,2,6,14,6,6,2,6,3,4,1,2,2020-10-18 23:19:39.215
1,2,4,4,6,4,16,4,2,4,8,3,2,1,6,2020-10-18 23:19:39.221
1,8,4,6,5,4,12,8,4,5,6,5,2,2020-10-18 23:19:39.227
3,6,6,8,5,4,13,4,3,8,6,6,5,2,2,8,2020-10-18 23:19:39.233
5,4,9,5,4,14,3,6,7,6,5,4,3,6,2020-10-18 23:19:39.239
5,6,8,5,8,15,4,8,6,6,2,5,3,2,2020-10-18 23:19:39.245
6,8,11,2,7,4,22,4,12,4,4,8,4,3,8,2020-10-18 23:19:39.256
6,4,15,2,8,4,23,6,14,6,5,2,3,8,2020-10-18 23:19:39.264
4,4,16,2,9,6,21,4,18,8,5,1,6,3,2020-10-18 23:19:39.269
2,2,13,2,9,2,22,6,19,8,4,4,1,6,2,2020-10-18 23:19:39.276
1,8,13,2,8,8,25,2,15,3,8,1,6,2,2,2020-10-18 23:19:39.282
0,6,9,4,7,6,19,2,13,6,3,6,2,1,4,2020-10-18 23:19:39.289
3,2,9,4,8,2,23,2,11,8,4,4,6,4,1,2,2020-10-18 23:19:39.295
5,8,9,4,8,8,27,2,10,5,2,10,8,1,2020-10-18 23:19:39.302
8,6,13,4,11,27,8,11,4,6,6,14,8,1,2020-10-18 23:19:39.307
8,6,15,8,12,2,25,6,16,8,6,6,14,2,1,2,2020-10-18 23:19:39.314
9,23,2,13,4,25,4,15,6,10,2,17,1,6,2020-10-18 23:19:39.319
6,8,19,4,10,8,22,15,6,9,4,12,6,1,6,2020-10-18 23:19:39.325
6,4,15,8,9,4,18,8,13,8,7,8,8,2,2,8,2020-10-18 23:19:39.331
6,12,2,8,15,6,12,6,2,3,8,4,2020-10-18 23:19:39.337
8,4,10,2,7,6,15,2,6,2,6,4,5,2020-10-18 23:19:39.344
8,6,5,6,6,13,8,7,2,2,3,5,2,2020-10-18 23:19:39.350
11,2,10,6,7,8,12,8,6,4,3,6,3,4,6,2,2020-10-18 23:19:39.356
12,16,7,8,11,6,7,6,5,8,3,8,6,2020-10-18 23:19:39.363
9,8,16,6,7,2,9,8,10,6,4,4,8,2020-10-18 23:19:39.368
7,6,17,2,6,6,8,12,4,6,2,4,2,3,6,2020-10-18 23:19:39.374
7,2,14,6,6,4,7,2,9,6,5,6,3,6,2,8,2020-10-18 23:19:39.380
4,2,12,2,5,6,8,4,12,2,3,2,3,2,2020-10-18 23:19:39.386
1,4,8,5,6,6,10,6,1,2,2,8,1,2020-10-18 23:19:39.391
1,6,8,6,5,5,4,7,8,1,2,2,8,1,2020-10-18 23:19:39.398
1,8,9,2,5,4,2,5,1,2,2,8,1,2020-10-18 23:19:39.404
2,6,12,2,5,6,6,2,5,2,1,4,1,8,1,6,2020-10-18 23:19:39.411
2,8,11,2,5,4,3,8,6,6,2,8,2,8,1,4,2020-10-18 23:19:39.417
2,8,12,5,4,4,12,2,3,8,3,4,1,4,2020-10-18 23:19:39.423
3,4,10,2,4,8,8,6,13,2,4,4,3,8,1,4,2020-10-18 23:19:39.428
3,8,9,5,2,9,8,14,4,4,8,4,1,8,2020-10-18 23:19:39.435
2,8,7,2,5,2,17,8,16,6,6,3,4,1,2,2020-10-18 23:19:39.443
2,6,6,6,4,27,4,13,2,6,2,4,1,2020-10-18 23:19:39.449
4,4,6,8,6,2,30,17,5,2,1,6,1,2,2020-10-18 23:19:39.456
5,6,10,2,5,8,29,25,4,4,8,1,1,4,2020-10-18 23:19:39.463
7,13,4,8,31,33,6,4,6,0,6,1,2,2020-10-18 23:19:39.469
9,15,3,4,24,40,8,3,8,0,8,1,6,2020-10-18 23:19:39.474
9,15,4,2,2,13,6,42,3,2,1,2,1,6,2020-10-18 23:19:39.481
7,13,8,2,4,10,2,36,3,4,1,4,1,2,2020-10-18 23:19:39.486
5,10,6,4,2,10,29,4,8,1,2,1,4,2020-10-18 23:19:39.491
4,2,8,2,3,8,7,6,20,2,6,4,1,2,1,6,2020-10-18 23:19:39.499
3,2,6,6,4,4,5,2,11,5,8,1,8,1,6,2020-10-18 23:19:39.505
4,2,5,6,4,6,7,2,8,2,6,2,1,8,1,6,2020-10-18 23:19:39.511
5,2,4,6,4,8,9,2,5,4,6,6,1,8,1,6,2020-10-18 23:19:39.516
5,2,4,8,3,7,5,6,5,2,1,2,2020-10-18 23:19:39.528
5,4,6,2,3,6,7,4,8,4,4,6,2,6,1,6,2020-10-18 23:19:39.534
5,8,6,8,3,2,7,8,11,6,6,4,2,6,2,2,2020-10-18 23:19:39.541
5,6,4,3,11,8,13,6,5,6,2,2,2,4,2020-10-18 23:19:39.547
4,2,6,2,8,15,8,15,6,4,8,1,8,2,6,2020-10-18 23:19:39.555
4,4,6,6,3,4,16,8,16,2,4,6,2,2,2,8,2020-10-18 23:19:39.561
2,8,4,4,3,16,15,2,3,1,6,2,2,2020-10-18 23:19:39.568
1,8,4,6,3,6,20,13,4,1,4,1,1,4,2020-10-18 23:19:39.574
2,6,8,4,2,19,4,12,4,1,2,1,2,1,4,2020-10-18 23:19:39.583
2,6,7,6,4,14,2,15,8,2,8,1,4,1,4,2020-10-18 23:19:39.589
3,7,8,4,4,17,8,15,6,3,1,1,2020-10-18 23:19:39.596
3,8,8,8,5,6,22,8,16,2,3,2,1,0,6,2020-10-18 23:19:39.602
3,8,8,5,18,4,18,2,3,6,1,0,6,2020-10-18 23:19:39.610
3,4,6,6,4,6,17,6,17,6,5,2,1,6,0,6,2020-10-18 23:19:39.615
3,6,5,16,8,12,6,3,6,1,6,0,6,2020-10-18 23:19:39.621
2,8,5,4,4,4,11,2,10,6,3,6,1,6,0,8,2020-10-18 23:19:39.629
4,4,4,6,4,2,6,6,12,8,3,4,2,4,3,2020-10-18 23:19:39.635
6,2,3,2,4,8,6,6,14,4,3,3,2,5,2020-10-18 23:19:39.641
6,6,2,2,4,2,2,6,14,8,1,2,2,8,5,8,2020-10-18 23:19:39.647
6,6,2,6,5,7,4,16,1,2,8,5,8,2020-10-18 23:19:39.655
6,6,3,5,8,12,2,17,2,0,8,2,8,5,8,2020-10-18 23:19:39.662
4,4,3,8,6,8,16,6,20,2,2,6,3,8,2020-10-18 23:19:39.669
2,6,7,8,5,8,16,2,14,8,2,6,2,2,2,2020-10-18 23:19:39.674
3,2,8,2,6,4,19,6,17,4,2,8,1,8,1,6,2020-10-18 23:19:39.683
3,8,7,8,5,6,18,8,19,2,2,8,1,6,2,2020-10-18 23:19:39.689
4,2,9,2,4,2,16,2,16,8,6,2,2,2,2,4,2020-10-18 23:19:39.695
5,10,4,2,2,13,8,6,8,4,2,2,2,8,2020-10-18 23:19:39.701
4,8,6,2,3,6,17,6,10,8,1,8,3,2,2020-10-18 23:19:39.707
4,5,8,4,4,18,8,7,4,8,2,2,3,4,2020-10-18 23:19:39.713
3,8,6,8,4,2,15,4,5,8,9,4,2,2,3,4,2020-10-18 23:19:39.719
3,8,6,4,6,13,8,8,4,7,2,1,6,3,4,2020-10-18 23:19:39.725
3,8,5,2,5,12,2,11,5,1,3,4,2020-10-18 23:19:39.732
4,8,5,4,4,4,10,6,10,4,5,6,1,6,3,4,2020-10-18 23:19:39.737
5,2,6,4,6,8,4,9,5,6,2,3,6,2020-10-18 23:19:39.745
4,6,6,4,4,9,6,7,5,2,2,3,4,2020-10-18 23:19:39.751
4,6,4,2,10,8,5,4,8,2,3,2,2020-10-18 23:19:39.757
4,5,2,4,4,16,5,2,3,6,2,2,3,2,2020-10-18 23:19:39.767
3,6,5,6,4,2,18,2,7,2,8,1,8,3,2020-10-18 23:19:39.772
2,8,6,8,3,8,15,2,7,2,8,1,4,2,2,2020-10-18 23:19:39.779
2,4,7,2,4,8,13,4,6,6,2,2,1,4,2,2020-10-18 23:19:39.785
2,2,7,4,4,13,7,2,2,2,1,6,1,8,2020-10-18 23:19:39.790
2,2,7,4,4,7,6,7,8,2,4,1,6,1,6,2020-10-18 23:19:39.799
2,2,7,8,3,6,2,2,8,4,2,6,1,6,1,4,2020-10-18 23:19:39.805
3,4,7,8,3,4,6,8,4,3,2,2,1,8,2020-10-18 23:19:39.816
4,6,7,8,2,4,7,8,4,3,4,2,8,2,2,2020-10-18 23:19:39.822
5,7,4,3,2,7,2,10,2,6,2,4,2,4,2020-10-18 23:19:39.829
4,6,7,2,4,4,11,6,6,8,3,6,2,8,2,2020-10-18 23:19:39.834
4,2,7,5,6,16,3,6,4,6,3,2,1,6,2020-10-18 23:19:39.841
3,6,6,6,4,18,4,3,6,5,2,3,2,1,2020-10-18 23:19:39.847
3,2,8,2,6,8,16,4,3,6,4,4,2,4,1,2,2020-10-18 23:19:39.852
3,8,8,6,4,15,8,1,8,4,8,2,8,1,2020-10-18 23:19:39.858
2,8,9,4,5,2,12,2,6,4,2,4,1,2,2020-10-18 23:19:39.864
2,6,10,4,8,2,3,4,3,2,2,1,4,2020-10-18 23:19:39.870
3,6,11,6,2,8,6,4,4,8,2,1,2,2,2020-10-18 23:19:39.877
4,4,10,2,9,6,2,2,2,1,2,1,8,2020-10-18 23:19:39.882
4,8,6,2,8,12,6,4,1,8,1,1,8,2020-10-18 23:19:39.888
3,6,7,2,3,6,15,6,6,1,4,0,8,1,8,2020-10-18 23:19:39.894
4,4,6,6,3,2,20,6,8,1,2,0,8,2,2,2020-10-18 23:19:39.900
4,5,2,8,23,6,4,1,4,1,2,2,2,2020-10-18 23:19:39.905
3,5,2,3,8,23,8,7,2,2,2,1,2,1,8,2020-10-18 23:19:39.912
3,6,7,8,4,23,6,8,4,3,1,1,8,2020-10-18 23:19:39.917
4,9,4,3,8,28,8,13,6,3,4,1,2,2,2020-10-18 23:19:39.922
3,2,10,2,4,8,32,18,8,3,6,0,8,2,2,2020-10-18 23:19:39.928
2,4,9,8,5,28,2,18,3,8,0,6,1,8,2020-10-18 23:19:39.934
2,2,7,6,3,8,26,6,16,3,4,0,8,1,8,2020-10-18 23:19:39.939
2,5,4,2,6,25,14,3,1,1,8,2020-10-18 23:19:39.945
2,2,5,2,2,2,17,2,9,6,3,1,1,6,2020-10-18 23:19:39.951
2,4,3,4,1,8,23,20,3,8,1,1,2020-10-18 23:19:39.956
2,6,2,8,2,2,35,8,36,4,4,6,1,0,8,2020-10-18 23:19:39.962
2,8,2,2,2,6,48,6,52,8,5,4,1,0,6,2020-10-18 23:19:39.968
2,6,2,8,3,4,49,53,8,5,8,1,6,0,8,2020-10-18 23:19:39.973
3,4,2,4,5,54,4,57,6,8,1,6,1,2020-10-18 23:19:39.979
4,2,3,6,6,6,46,2,45,4,7,1,6,1,6,2020-10-18 23:19:39.984
5,4,8,8,2,38,33,8,7,2,1,6,2,2,2020-10-18 23:19:39.989
5,2,5,8,9,2,34,19,2,6,6,1,6,2,6,2020-10-18 23:19:39.996
5,8,5,6,9,8,42,4,20,6,4,1,2,6,2020-10-18 23:19:40.001
4,4,4,6,7,6,38,2,18,8,5,1,2,2,2020-10-18 23:19:40.006
3,3,6,5,4,34,17,6,3,6,1,1,8,2020-10-18 23:19:40.013
3,2,4,8,3,4,27,6,18,2,2,1,1,2,2020-10-18 23:19:40.019
4,6,2,2,17,21,4,1,6,1,0,8,2020-10-18 23:19:40.024
3,4,6,4,1,2,6,4,19,6,1,2,0,8,0,6,2020-10-18 23:19:40.031
3,6,7,4,2,4,2,16,1,4,0,6,0,6,2020-10-18 23:19:40.036
3,8,7,4,2,6,6,2,18,4,2,6,1,0,4,2020-10-18 23:19:40.042
2,4,5,2,3,10,4,19,2,3,8,1,4,0,4,2020-10-18 23:19:40.048
2,2,3,3,8,10,4,15,6,4,1,8,1,2,2020-10-18 23:19:40.053
3,4,2,4,10,4,16,8,8,2,4,1,8,2020-10-18 23:19:40.058
4,2,1,2,4,17,20,2,8,4,3,2,6,2020-10-18 23:19:40.064
5,1,4,4,2,19,4,18,4,7,3,3,6,2020-10-18 23:19:40.074
5,4,2,4,3,6,15,2,17,8,6,4,2,8,3,6,2020-10-18 23:19:40.080
4,6,3,4,2,6,15,2,22,2,4,4,2,6,2,8,2020-10-18 23:19:40.086
4,8,4,2,2,4,20,8,27,6,2,4,2,6,2,4,2020-10-18 23:19:40.091
5,4,4,8,2,4,19,8,29,8,3,2,2,6,1,8,2020-10-18 23:19:40.097
5,2,8,2,2,8,15,25,4,3,6,2,1,2020-10-18 23:19:40.103
5,4,10,8,4,16,8,19,8,3,2,1,6,1,2,2020-10-18 23:19:40.108
5,11,8,4,4,20,18,2,3,4,1,2,1,4,2020-10-18 23:19:40.114
3,6,13,4,17,6,15,6,3,6,0,6,1,2,2020-10-18 23:19:40.119
2,2,14,2,3,6,15,2,13,3,8,0,1,2020-10-18 23:19:40.125
3,4,12,4,2,6,20,4,17,4,6,0,6,1,2,2020-10-18 23:19:40.131
4,9,8,1,8,19,6,19,2,5,1,2,1,2,2020-10-18 23:19:40.136
5,2,8,8,1,8,17,4,17,4,4,8,1,8,1,2,2020-10-18 23:19:40.142
6,4,7,8,1,8,15,2,15,6,4,6,2,4,1,2,2020-10-18 23:19:40.148
6,4,6,8,2,2,13,2,15,6,4,2,8,1,2,2020-10-18 23:19:40.153
5,5,2,2,2,8,6,13,2,8,2,8,1,4,2020-10-18 23:19:40.158
4,2,4,4,2,10,12,2,2,2,8,1,8,2020-10-18 23:19:40.164
3,4,3,6,1,8,11,4,11,4,1,2,2,8,2,2,2020-10-18 23:19:40.170
2,6,2,6,1,6,10,6,10,4,0,6,2,2,2,6,2020-10-18 23:19:40.176
3,1,6,1,9,6,7,6,0,4,1,8,3,2020-10-18 23:19:40.182
2,8,2,2,1,8,7,4,9,4,1,1,2,2,4,2020-10-18 23:19:40.188
2,6,2,8,2,6,5,2,11,2,1,6,0,6,1,8,2020-10-18 23:19:40.194
2,2,8,3,2,4,9,8,2,8,0,8,1,6,2020-10-18 23:19:40.199
1,4,3,3,8,5,8,6,3,8,1,6,1,4,2020-10-18 23:19:40.205
3,5,4,6,7,8,7,6,3,8,2,1,8,2020-10-18 23:19:40.211
2,8,4,8,4,8,6,4,4,4,2,2,2,4,2020-10-18 23:19:40.217
2,6,4,6,3,4,9,4,1,2,4,2,2,4,3,2020-10-18 23:19:40.222
2,8,5,3,9,2,1,2,3,8,1,8,3,2,2020-10-18 23:19:40.229
3,4,5,2,2,4,9,2,7,6,2,8,1,3,2,2020-10-18 23:19:40.235
1,8,3,6,1,6,7,4,13,8,2,8,0,6,2,6,2020-10-18 23:19:40.239
2,4,4,6,1,4,8,6,15,8,2,2,1,3,2020-10-18 23:19:40.246
3,5,6,1,2,9,8,17,8,1,6,1,4,3,4,2020-10-18 23:19:40.251
3,2,6,2,11,4,22,2,1,2,1,6,3,2020-10-18 23:19:40.256
3,6,6,3,12,8,20,2,1,4,2,2,8,2020-10-18 23:19:40.263
2,8,7,2,4,14,2,18,2,1,6,2,4,2,6,2020-10-18 23:19:40.268
2,6,5,8,4,2,13,18,8,1,8,2,1,8,2020-10-18 23:19:40.274
2,4,5,2,4,6,11,16,8,1,6,1,4,1,4,2020-10-18 23:19:40.280
2,6,5,2,4,8,6,12,4,1,2,1,1,8,2020-10-18 23:19:40.286
2,8,5,2,3,4,6,2,8,0,8,0,6,2,2,2020-10-18 23:19:40.292
2,8,4,2,2,4,4,2,4,4,0,4,0,4,2,2,2020-10-18 23:19:40.298
2,6,4,2,2,3,8,2,6,0,0,4,2,2,2020-10-18 23:19:40.304
3,2,4,8,2,4,4,2,3,6,2,6,1,1,6,2020-10-18 23:19:40.309
3,8,5,6,2,6,4,6,4,6,5,2,1,6,1,2020-10-18 23:19:40.316
4,4,6,4,2,8,5,5,6,7,8,2,2,0,4,2020-10-18 23:19:40.322
4,6,4,2,8,4,4,6,8,8,2,2,6,0,2,2020-10-18 23:19:40.333
4,6,7,2,4,2,5,8,7,9,2,8,0,8,2020-10-18 23:19:40.337
4,4,6,2,5,7,2,7,7,2,2,6,1,6,2020-10-18 23:19:40.344
4,2,5,2,5,8,8,6,7,5,4,2,4,2,4,2020-10-18 23:19:40.349
3,6,7,8,5,4,9,2,5,8,3,2,2,2,6,2020-10-18 23:19:40.354
3,8,8,4,5,2,10,8,5,2,2,8,1,4,2,8,2020-10-18 23:19:40.361
3,8,9,4,8,11,4,2,2,6,1,2,2,2,2020-10-18 23:19:40.366
3,8,9,6,4,4,11,2,3,2,2,4,1,1,6,2020-10-18 23:19:40.372
3,9,6,3,2,11,5,8,2,0,6,0,8,2020-10-18 23:19:40.378
2,6,6,3,2,11,6,9,6,2,0,4,0,6,2020-10-18 23:19:40.384
2,8,6,6,4,2,14,4,8,6,2,0,8,0,6,2020-10-18 23:19:40.389
2,2,6,4,4,16,6,9,1,4,1,0,6,2020-10-18 23:19:40.395
2,5,4,3,4,15,10,4,1,6,1,2,0,8,2020-10-18 23:19:40.401
2,6,5,3,6,13,8,8,2,2,1,6,1,2,2020-10-18 23:19:40.406
2,6,5,2,3,6,13,2,5,3,2,2,4,1,4,2020-10-18 23:19:40.412
2,4,5,3,10,5,4,8,2,8,1,4,2020-10-18 23:19:40.417
2,4,4,8,3,2,9,4,6,6,5,6,3,1,8,2020-10-18 23:19:40.423
2,5,2,2,8,9,4,7,5,4,2,8,1,8,2020-10-18 23:19:40.429
1,2,6,4,2,4,9,2,6,6,4,8,2,6,1,4,2020-10-18 23:19:40.434
1,7,2,2,8,4,7,2,3,4,2,1,2,2020-10-18 23:19:40.441
1,8,7,4,2,7,4,7,6,2,2,1,6,1,4,2020-10-18 23:19:40.448
1,6,7,4,1,4,6,8,6,4,2,2,1,8,0,8,2020-10-18 23:19:40.454
1,4,7,6,1,2,7,4,6,1,8,2,0,8,2020-10-18 23:19:40.459
1,6,7,1,8,2,6,4,1,8,2,2,1,2,2020-10-18 23:19:40.466
1,8,6,4,0,8,9,6,8,1,8,2,4,1,6,2020-10-18 23:19:40.471
1,5,1,9,8,6,4,1,8,2,4,1,4,2020-10-18 23:19:40.476
1,4,2,0,4,7,5,4,1,8,1,8,1,4,2020-10-18 23:19:40.482
1,4,4,6,1,7,4,2,2,1,4,1,2,2020-10-18 23:19:40.488
1,8,5,1,6,7,3,2,2,1,1,2020-10-18 23:19:40.493
2,2,4,2,2,6,6,1,6,2,8,1,1,2,2020-10-18 23:19:40.499
2,6,4,4,2,6,4,1,2,3,2,1,1,6,2020-10-18 23:19:40.505
2,4,4,6,2,7,1,2,3,1,1,8,2020-10-18 23:19:40.511
1,8,3,6,1,4,6,8,0,8,3,2,1,2,1,8,2020-10-18 23:19:40.516
1,2,2,2,10,6,0,6,2,8,1,2,1,6,2020-10-18 23:19:40.522
0,6,1,6,2,8,14,8,0,6,2,0,8,1,2020-10-18 23:19:40.528
0,2,1,4,2,4,14,8,1,1,4,0,6,0,8,2020-10-18 23:19:40.534
0,4,1,2,4,14,6,1,6,1,0,6,1,2020-10-18 23:19:40.539
0,6,0,8,3,2,17,8,2,2,0,8,0,4,0,8,2020-10-18 23:19:40.545
1,4,0,8,2,4,12,6,2,4,0,8,0,4,1,2020-10-18 23:19:40.550
1,4,0,8,2,2,8,4,3,2,1,0,6,1,2,2020-10-18 23:19:40.556
1,2,0,6,3,2,8,4,3,6,1,0,6,1,2020-10-18 23:19:40.563
1,2,2,3,4,8,2,3,8,0,8,0,4,0,6,2020-10-18 23:19:40.568
1,3,2,3,4,2,3,4,0,8,1,1,2020-10-18 23:19:40.573
0,2,4,8,3,4,6,3,2,1,2,1,6,1,2,2020-10-18 23:19:40.581
0,8,5,2,4,3,6,3,4,2,2,3,2,1,6,2020-10-18 23:19:40.586
1,4,5,2,1,8,2,6,3,6,3,2,4,8,2,2020-10-18 23:19:40.597
1,4,3,8,1,8,3,6,3,4,4,5,2,2020-10-18 23:19:40.603
1,4,2,8,1,4,4,4,4,8,3,6,4,8,1,6,2020-10-18 23:19:40.609
1,4,1,8,1,5,2,6,2,3,2,4,6,1,2,2020-10-18 23:19:40.615
1,2,4,0,6,5,2,5,8,2,6,2,8,0,6,2020-10-18 23:19:40.620
0,6,3,0,2,5,2,5,4,2,1,0,2020-10-18 23:19:40.626
0,6,3,6,0,2,3,6,6,4,1,4,1,2,0,4,2020-10-18 23:19:40.632
0,8,3,8,0,4,2,6,6,4,1,6,1,2,0,8,2020-10-18 23:19:40.637
0,8,3,6,0,6,2,4,5,2,1,6,1,2,0,8,2020-10-18 23:19:40.643
0,6,3,2,0,8,3,4,4,8,1,1,6,0,8,2020-10-18 23:19:40.648
0,8,2,8,0,8,4,2,5,4,1,1,8,1,2,2020-10-18 23:19:40.654
1,2,4,0,6,4,8,5,2,1,4,1,6,1,2,2020-10-18 23:19:40.659
1,4,1,8,1,5,6,4,6,1,8,1,2,1,2,2020-10-18 23:19:40.665
1,6,1,6,0,8,5,4,4,2,2,2,1,4,1,6,2020-10-18 23:19:40.671
1,8,1,8,1,4,6,4,2,2,4,1,2,1,8,2020-10-18 23:19:40.676
1,6,2,1,4,4,3,2,2,1,2,1,6,2020-10-18 23:19:40.683
1,4,2,2,1,8,3,4,2,2,1,6,1,2,1,4,2020-10-18 23:19:40.688
1,2,2,8,1,4,3,1,2,1,4,1,8,1,2,2020-10-18 23:19:40.694
1,2,3,1,6,3,2,2,1,2,1,2,0,8,2020-10-18 23:19:40.700
1,2,2,8,1,4,4,2,4,1,2,1,0,6,2020-10-18 23:19:40.705
1,2,2,6,1,2,4,8,2,8,1,2,0,8,0,4,2020-10-18 23:19:40.712
1,2,2,4,1,5,6,3,2,1,2,0,6,0,2,2020-10-18 23:19:40.717
0,8,2,1,5,4,2,1,0,0,2,2020-10-18 23:19:40.723
0,6,2,2,1,8,7,2,3,8,0,8,0,4,0,2,2020-10-18 23:19:40.730
0,8,1,8,1,8,6,8,3,4,0,8,0,4,1,2020-10-18 23:19:40.734
1,1,4,1,8,6,4,3,0,8,0,4,1,8,2020-10-18 23:19:40.740
1,2,1,1,8,6,2,6,0,8,0,4,2,6,2020-10-18 23:19:40.747
1,4,0,8,3,2,8,4,2,0,8,0,6,2,8,2020-10-18 23:19:40.753
1,6,0,8,2,6,5,8,1,6,1,0,4,3,2,2020-10-18 23:19:40.758
1,4,1,4,2,8,5,8,1,2,1,0,6,2,8,2020-10-18 23:19:40.765
1,2,2,3,5,8,0,8,1,0,8,2,4,2020-10-18 23:19:40.770
1,2,2,6,4,2,5,4,0,6,0,8,1,2,1,8,2020-10-18 23:19:40.775
1,6,2,8,2,6,3,2,0,2,0,6,1,1,8,2020-10-18 23:19:40.781
2,2,6,2,2,2,8,0,2,0,4,0,8,1,8,2020-10-18 23:19:40.786
2,4,2,4,1,8,2,4,0,2,0,2,0,6,1,8,2020-10-18 23:19:40.792
2,2,2,2,1,8,2,4,1,0,2,0,6,1,4,2020-10-18 23:19:40.798
1,8,2,0,8,2,8,1,6,0,4,0,4,1,2,2020-10-18 23:19:40.804
1,4,1,8,2,6,2,4,2,0,6,0,6,1,2020-10-18 23:19:40.809
1,1,6,4,4,2,2,4,0,8,0,8,0,8,2020-10-18 23:19:40.815
0,8,1,6,6,6,3,2,3,2,1,2,1,2,0,6,2020-10-18 23:19:40.821
1,2,1,6,8,4,4,3,2,1,4,1,4,0,8,2020-10-18 23:19:40.826
1,4,1,8,9,2,3,8,4,1,6,1,6,1,2,2020-10-18 23:19:40.832
1,4,2,2,8,6,4,4,5,2,1,8,1,8,1,4,2020-10-18 23:19:40.838
1,6,2,8,7,2,5,2,5,2,2,2,1,8,2020-10-18 23:19:40.844
1,6,3,2,5,4,4,4,4,8,2,2,2,2,2020-10-18 23:19:40.850
1,2,3,8,4,2,3,6,4,2,1,8,1,8,2,2,2020-10-18 23:19:40.854
1,4,2,4,3,8,2,8,1,6,1,6,2,2020-10-18 23:19:40.866
1,2,4,8,3,5,8,2,2,1,4,1,6,1,8,2020-10-18 23:19:40.872
1,6,4,2,2,8,5,2,2,6,1,8,2,2,2,2020-10-18 23:19:40.877
2,3,6,2,6,4,6,3,2,2,2,8,2,2,2020-10-18 23:19:40.883
2,8,2,8,1,8,4,3,6,2,8,3,6,2,8,2020-10-18 23:19:40.888
3,4,1,8,2,6,3,4,4,2,2,6,3,8,2,8,2020-10-18 23:19:40.894
3,4,1,4,2,4,2,2,3,4,2,8,3,6,2,6,2020-10-18 23:19:40.900
3,2,3,4,3,6,3,2,2,2,8,2,2020-10-18 23:19:40.905
2,6,2,6,4,4,5,2,6,1,6,2,1,4,2020-10-18 23:19:40.912
2,2,4,4,8,5,6,2,2,1,2,1,4,0,8,2020-10-18 23:19:40.917
1,8,3,2,3,8,6,8,1,6,1,2,1,0,8,2020-10-18 23:19:40.923
1,4,3,2,7,6,8,1,6,1,2,0,8,1,2020-10-18 23:19:40.928
1,3,2,9,6,6,1,4,1,4,0,6,1,2020-10-18 23:19:40.933
0,8,4,4,8,8,5,8,1,2,1,2,0,8,1,2020-10-18 23:19:40.940
0,8,6,4,9,2,5,8,1,0,8,0,8,1,2020-10-18 23:19:40.946
0,4,5,6,9,5,6,1,4,1,2,1,0,8,2020-10-18 23:19:40.951
0,4,4,8,6,4,5,4,1,8,1,2,1,2,0,6,2020-10-18 23:19:40.957
0,4,4,4,3,4,4,2,1,6,1,1,6,1,4,2020-10-18 23:19:40.963
0,2,2,8,2,6,3,6,1,4,1,2,1,6,2,2,2020-10-18 23:19:40.969
0,1,2,1,8,3,1,2,1,4,1,6,3,2020-10-18 23:19:40.974
0,2,1,2,2,4,6,0,6,1,2,1,6,3,6,2020-10-18 23:19:40.981
0,4,1,2,2,2,6,2,0,1,1,6,4,2,2020-10-18 23:19:40.986
0,4,2,3,8,8,0,4,1,2,1,6,4,2020-10-18 23:19:40.991
0,4,2,8,5,4,9,8,0,8,1,4,1,6,3,8,2020-10-18 23:19:40.997
0,4,3,2,7,6,9,8,1,2,1,2,1,4,3,2020-10-18 23:19:41.002
0,2,4,9,2,7,2,1,6,1,1,4,2,6,2020-10-18 23:19:41.008
0,4,4,2,9,4,5,6,2,0,8,1,4,2,2,2020-10-18 23:19:41.014
0,8,3,2,8,6,4,8,2,0,4,1,2,1,6,2020-10-18 23:19:41.019
1,4,3,2,9,6,8,8,2,2,0,6,1,4,1,6,2020-10-18 23:19:41.025
2,3,6,10,14,6,2,4,1,2,1,8,2,2,2020-10-18 23:19:41.031
2,2,8,9,2,17,2,6,1,4,1,8,2,6,2020-10-18 23:19:41.037
1,6,2,6,9,8,18,4,2,8,1,6,1,8,3,2020-10-18 23:19:41.043
1,2,2,4,10,4,19,8,3,1,8,1,8,3,4,2020-10-18 23:19:41.049
0,8,2,6,8,6,19,4,2,4,1,4,1,6,2,6,2020-10-18 23:19:41.053
0,6,1,4,5,8,14,8,2,8,0,8,1,2,2,2020-10-18 23:19:41.058
1,1,4,4,2,13,6,3,2,0,6,1,2,1,6,2020-10-18 23:19:41.065
1,4,1,4,2,6,12,4,3,6,0,4,1,2,1,2,2020-10-18 23:19:41.070
1,8,1,6,2,2,12,3,2,0,2,1,0,8,2020-10-18 23:19:41.075
2,4,0,2,4,4,7,6,3,6,0,6,0,6,1,2020-10-18 23:19:41.082
2,8,0,2,7,6,7,4,3,1,2,0,4,1,2020-10-18 23:19:41.086
3,2,0,2,10,8,7,2,2,4,1,8,0,2,1,2020-10-18 23:19:41.092
3,2,0,2,11,2,6,1,6,2,0,2,1,2,2020-10-18 23:19:41.098
3,2,0,10,4,4,1,6,2,2,0,4,1,4,2020-10-18 23:19:41.104
3,2,1,2,8,2,3,8,1,8,2,4,1,1,6,2020-10-18 23:19:41.109
3,2,2,4,6,3,6,2,2,6,1,6,1,8,2020-10-18 23:19:41.115
2,8,3,3,8,3,6,2,2,4,1,8,1,6,2020-10-18 23:19:41.120
2,4,4,6,4,6,4,1,8,2,2,1,8,1,6,2020-10-18 23:19:41.126
2,6,2,5,4,4,4,1,6,2,1,8,1,6,2020-10-18 23:19:41.136
2,6,2,5,5,2,1,4,1,4,1,6,2020-10-18 23:19:41.142
2,6,2,4,6,5,6,2,4,0,8,1,1,6,2020-10-18 23:19:41.149
2,2,6,3,8,5,2,0,4,1,1,8,2020-10-18 23:19:41.155
2,6,5,2,2,8,5,2,2,0,6,1,2,2,2,2020-10-18 23:19:41.161
3,4,4,1,8,5,2,4,0,8,1,4,2,6,2020-10-18 23:19:41.167
3,4,8,1,4,4,4,1,6,1,1,8,2,6,2020-10-18 23:19:41.172
2,6,4,1,3,1,2,1,2,4,2,4,2020-10-18 23:19:41.177
2,4,4,1,2,6,1,8,1,2,3,2,4,2020-10-18 23:19:41.183
2,4,3,6,1,2,2,2,2,1,2,3,4,1,8,2020-10-18 23:19:41.189
2,2,3,2,8,3,2,2,2,1,3,2,1,2020-10-18 23:19:41.195
2,1,8,2,8,3,2,6,0,6,2,8,1,2020-10-18 23:19:41.202
2,2,1,8,2,8,3,6,2,6,0,4,2,2,1,2,2020-10-18 23:19:41.207
2,4,1,8,2,8,4,2,2,6,0,2,1,6,1,4,2020-10-18 23:19:41.213
2,6,1,8,3,2,5,2,0,4,1,4,1,4,2020-10-18 23:19:41.218
3,2,1,8,4,4,1,8,0,8,1,8,1,6,2020-10-18 23:19:41.223
3,6,2,2,2,4,4,2,1,2,1,1,8,1,4,2020-10-18 23:19:41.230
4,2,2,4,3,4,0,6,1,2,1,8,1,2,2020-10-18 23:19:41.235
4,2,3,8,3,8,0,8,1,4,2,1,2020-10-18 23:19:41.241
3,8,1,6,4,2,3,4,1,6,1,2,1,8,1,2020-10-18 23:19:41.247
3,2,1,8,3,8,2,8,1,6,1,1,4,1,2020-10-18 23:19:41.252
2,1,8,3,2,2,6,1,6,1,1,4,1,2020-10-18 23:19:41.258
1,2,1,4,2,6,4,2,2,6,0,8,1,2,1,2,2020-10-18 23:19:41.265
1,2,1,6,1,8,5,8,2,8,0,6,0,8,1,4,2020-10-18 23:19:41.271
1,6,2,2,1,8,8,4,2,0,6,0,8,1,6,2020-10-18 23:19:41.276
2,4,2,2,2,6,11,2,2,0,6,1,1,8,2020-10-18 23:19:41.282
3,2,2,2,3,4,14,2,0,6,1,2,2,2020-10-18 23:19:41.287
3,2,4,4,4,12,4,1,8,1,2,1,4,1,6,2020-10-18 23:19:41.293
3,2,6,5,8,11,1,2,1,4,1,6,1,4,2020-10-18 23:19:41.299
2,6,2,4,6,4,8,6,1,6,1,4,1,4,1,2,2020-10-18 23:19:41.304
2,2,2,2,7,6,2,2,1,4,1,2,1,2020-10-18 23:19:41.310
2,2,4,7,8,5,2,2,2,1,4,0,8,1,2020-10-18 23:19:41.316
2,4,2,8,8,4,6,8,1,6,1,0,6,1,4,2020-10-18 23:19:41.322
2,2,3,4,7,6,1,6,0,8,0,6,1,4,2020-10-18 23:19:41.328
2,4,5,6,5,2,1,6,0,6,0,6,1,4,2020-10-18 23:19:41.333
1,8,3,8,4,8,5,1,6,0,8,0,6,1,2,2020-10-18 23:19:41.338
1,4,3,2,3,8,3,4,1,8,1,0,8,0,8,2020-10-18 23:19:41.344
1,3,2,6,1,6,2,0,8,1,0,4,2020-10-18 23:19:41.351
1,2,6,3,2,2,0,8,1,0,2,2020-10-18 23:19:41.356
1,2,2,8,3,6,3,2,1,6,1,1,0,2020-10-18 23:19:41.362
1,4,3,8,3,6,3,8,1,2,0,8,1,0,2020-10-18 23:19:41.368
1,6,4,2,3,6,3,8,1,2,0,6,1,2,0,6,2020-10-18 23:19:41.373
1,8,4,2,3,8,4,1,2,0,8,1,4,1,2,2020-10-18 23:19:41.379
2,6,4,2,4,4,2,1,4,1,2,1,4,1,4,2020-10-18 23:19:41.385
3,2,3,6,4,3,6,2,1,4,1,4,1,6,2020-10-18 23:19:41.391
3,8,3,4,3,2,6,1,6,1,4,1,8,2020-10-18 23:19:41.397
3,4,3,2,3,8,2,8,2,6,1,4,1,1,6,2020-10-18 23:19:41.403
3,4,3,2,4,2,4,3,4,1,4,0,6,1,2,2020-10-18 23:19:41.408
2,6,3,8,3,4,3,3,1,4,1,2,1,2,2020-10-18 23:19:41.419
1,8,4,4,2,8,3,6,2,6,1,4,1,8,1,2,2020-10-18 23:19:41.424
1,4,6,3,3,2,2,1,6,2,1,8,2020-10-18 23:19:41.430
1,2,4,6,3,4,2,6,2,2,2,2,4,2,2,2020-10-18 23:19:41.436
2,2,6,2,2,8,2,8,1,2,6,2,8,2,4,2020-10-18 23:19:41.443
3,4,7,2,3,2,1,2,8,2,4,2,6,2020-10-18 23:19:41.448
4,6,8,2,3,2,1,2,1,3,2,2,8,2020-10-18 23:19:41.454
5,6,7,4,2,4,1,8,2,2,8,2,8,3,4,2020-10-18 23:19:41.459
6,6,6,6,1,6,2,4,3,2,6,3,6,4,2020-10-18 23:19:41.465
5,8,5,4,1,8,2,8,3,2,2,3,4,4,6,2020-10-18 23:19:41.470
5,4,2,2,3,2,3,4,1,4,3,2,5,2,2020-10-18 23:19:41.476
4,4,2,6,2,3,2,3,4,1,3,5,4,2020-10-18 23:19:41.483
4,3,2,2,2,3,2,4,0,8,2,4,6,2020-10-18 23:19:41.487
3,4,4,2,2,2,4,1,2,0,6,1,3,2,2020-10-18 23:19:41.493
2,6,4,6,1,8,1,6,0,8,0,8,1,2,2,2020-10-18 23:19:41.499
2,2,4,2,8,1,8,1,1,6,0,8,1,8,2020-10-18 23:19:41.505
1,6,3,8,4,2,4,1,4,2,2,0,6,1,8,2020-10-18 23:19:41.510
1,6,3,4,3,6,2,6,1,6,2,0,4,1,6,2020-10-18 23:19:41.517
2,2,2,4,3,4,3,2,2,1,8,0,2,2,2020-10-18 23:19:41.522
2,8,1,4,3,2,3,8,2,4,1,6,0,2,4,2020-10-18 23:19:41.527
2,8,1,2,2,4,2,1,8,1,2,0,2,2,2020-10-18 23:19:41.534
3,1,2,0,8,5,1,4,1,0,6,2,2020-10-18 23:19:41.538
2,6,1,4,1,2,6,2,1,2,1,6,1,2,2,2020-10-18 23:19:41.545
2,2,1,6,1,6,7,4,1,2,2,1,8,2,2020-10-18 23:19:41.550
1,6,2,2,8,7,4,0,6,2,4,1,8,1,8,2020-10-18 23:19:41.555
2,2,6,3,6,6,8,0,6,2,4,2,6,1,6,2020-10-18 23:19:41.561
2,2,3,4,4,5,8,0,4,2,2,2,8,1,4,2020-10-18 23:19:41.567
2,4,3,4,5,2,4,8,0,2,2,3,1,2,2020-10-18 23:19:41.573
2,4,3,8,4,8,3,6,0,2,1,8,2,4,1,2,2020-10-18 23:19:41.580
2,6,4,3,6,3,6,0,4,2,2,4,1,4,2020-10-18 23:19:41.585
2,6,3,4,3,6,6,0,8,2,2,3,1,2,2020-10-18 23:19:41.591
2,2,4,6,2,6,6,6,2,1,8,2,2,1,2,2020-10-18 23:19:41.597
1,8,5,8,2,2,6,6,3,2,1,4,1,4,1,2,2020-10-18 23:19:41.604
1,6,7,3,6,8,4,2,1,1,4,1,2020-10-18 23:19:41.609
1,8,7,4,4,7,5,0,8,2,4,1,2,2020-10-18 23:19:41.615
1,4,8,4,4,2,3,4,5,6,1,2,4,2,1,4,2020-10-18 23:19:41.621
1,4,7,6,4,2,2,8,5,4,2,2,7,4,1,4,2020-10-18 23:19:41.626
1,4,6,8,4,2,2,2,5,2,3,2,10,6,1,4,2020-10-18 23:19:41.633
2,5,3,6,2,6,4,4,3,6,10,8,2,2,2020-10-18 23:19:41.638
2,6,3,8,2,6,2,4,4,4,4,2,10,8,2,2020-10-18 23:19:41.644
3,6,2,6,1,8,2,8,4,4,4,8,6,2,2,2020-10-18 23:19:41.650
4,6,1,4,1,3,2,4,4,3,8,6,4,2,4,2020-10-18 23:19:41.655
4,4,0,4,1,4,4,4,4,4,6,4,6,2,4,2020-10-18 23:19:41.661
3,6,0,4,1,6,4,6,5,6,5,8,1,6,2020-10-18 23:19:41.667
3,4,0,8,1,8,5,4,5,4,5,4,5,1,6,2020-10-18 23:19:41.672
3,2,1,2,6,8,4,7,6,5,6,5,2,2,2020-10-18 23:19:41.677
3,1,2,3,4,11,4,9,8,5,8,5,4,2,4,2020-10-18 23:19:41.684
3,6,1,4,3,11,11,2,4,8,4,2,2,2,2020-10-18 23:19:41.690
4,4,2,6,4,2,10,10,4,3,6,4,2,2,6,2020-10-18 23:19:41.701
4,2,3,6,6,9,9,2,4,5,4,2,8,2020-10-18 23:19:41.706
3,2,4,5,8,5,6,7,2,3,4,4,2,2,2020-10-18 23:19:41.712
2,4,4,6,4,4,2,4,2,2,8,3,4,1,8,2020-10-18 23:19:41.718
2,3,8,7,4,5,4,2,2,8,3,4,2,2,2020-10-18 23:19:41.724
1,4,2,6,6,8,7,2,2,3,2,2,2,2020-10-18 23:19:41.730
1,2,2,4,6,2,13,6,2,2,3,1,2,2,2020-10-18 23:19:41.736
1,4,2,2,6,13,4,1,4,4,2,1,2,2,2020-10-18 23:19:41.741
1,4,2,4,5,11,2,1,6,4,6,1,2,2020-10-18 23:19:41.747
1,4,2,6,4,9,1,8,5,1,1,8,2020-10-18 23:19:41.753
2,3,3,6,10,8,4,2,5,1,6,2,4,2020-10-18 23:19:41.758
2,2,2,3,2,6,8,6,4,5,8,2,4,2,2,2020-10-18 23:19:41.764
2,4,2,2,3,8,9,6,8,6,6,3,2,2,6,2020-10-18 23:19:41.770
2,8,2,2,4,4,12,4,10,8,6,2,4,3,2020-10-18 23:19:41.775
2,6,2,6,4,2,12,4,12,5,4,4,2,8,2020-10-18 23:19:41.782
1,8,2,8,3,4,8,4,11,5,3,4,1,8,2020-10-18 23:19:41.788
1,6,3,2,2,8,6,4,10,6,4,2,4,4,1,4,2020-10-18 23:19:41.793
1,4,3,6,2,2,4,4,10,2,3,4,5,4,1,2020-10-18 23:19:41.799
1,3,4,1,6,2,6,8,2,3,2,5,2,0,4,2020-10-18 23:19:41.804
1,2,2,8,1,8,3,6,7,2,4,5,8,0,4,2020-10-18 23:19:41.810
1,4,2,4,2,4,4,6,7,4,3,6,6,2,1,2020-10-18 23:19:41.817
1,6,6,8,2,2,5,4,5,4,6,5,4,1,2,2020-10-18 23:19:41.823
1,8,11,2,2,6,2,3,4,8,4,4,6,1,4,2020-10-18 23:19:41.828
2,2,16,2,1,8,6,8,3,10,2,5,1,8,2020-10-18 23:19:41.833
2,2,16,2,1,4,8,8,4,2,11,4,6,8,2,2,2020-10-18 23:19:41.839
2,2,16,0,6,10,8,4,2,13,8,8,8,2,2020-10-18 23:19:41.845
2,6,12,4,0,8,11,2,5,8,14,6,9,6,2,2020-10-18 23:19:41.850
3,8,8,1,11,6,7,4,15,4,10,4,2,2020-10-18 23:19:41.856
2,4,4,2,2,4,13,8,8,13,6,9,4,1,6,2020-10-18 23:19:41.862
2,2,4,6,4,13,8,6,12,4,7,1,2,2020-10-18 23:19:41.869
2,5,5,6,13,8,4,11,2,4,6,0,8,2020-10-18 23:19:41.873
1,4,4,6,5,2,11,2,7,4,8,4,2,8,0,6,2020-10-18 23:19:41.879
1,2,3,4,5,9,6,13,6,4,8,1,4,0,4,2020-10-18 23:19:41.885
2,3,2,3,6,7,20,3,8,1,8,0,6,2020-10-18 23:19:41.891
2,8,3,2,2,4,4,26,4,2,8,2,2,0,8,2020-10-18 23:19:41.897
3,8,4,6,1,2,6,26,8,4,6,6,2,2,2020-10-18 23:19:41.903
4,4,5,6,1,4,3,6,28,6,6,10,2,3,2020-10-18 23:19:41.908
4,4,5,4,1,4,6,6,24,2,10,4,12,4,3,8,2020-10-18 23:19:41.913
4,2,5,8,2,2,6,6,29,14,15,2,4,2,2020-10-18 23:19:41.920
4,6,2,3,6,6,33,8,17,6,18,4,6,2020-10-18 23:19:41.925
3,6,4,8,3,6,5,8,44,6,18,4,17,2,4,2020-10-18 23:19:41.932
3,2,6,8,3,6,7,2,43,21,8,16,2,3,4,2020-10-18 23:19:41.938
3,4,6,6,4,2,5,4,47,2,22,8,16,2,2,8,2020-10-18 23:19:41.943
3,8,5,8,4,6,6,42,8,24,15,6,2,6,2020-10-18 23:19:41.949
4,2,5,3,8,7,8,38,4,25,2,15,2,4,2020-10-18 23:19:41.955
5,4,4,8,3,2,8,26,4,22,4,20,8,3,2,2020-10-18 23:19:41.961
6,6,7,6,3,4,10,4,32,2,19,8,18,8,3,6,2020-10-18 23:19:41.966
7,4,14,6,3,2,13,8,30,18,6,17,2,4,2,2020-10-18 23:19:41.972
7,8,17,6,4,6,13,6,24,4,17,16,6,5,2,2020-10-18 23:19:41.977
8,2,20,6,6,13,4,18,8,15,4,16,6,2,2020-10-18 23:19:41.989
6,6,24,6,6,2,13,4,18,4,36,2,23,2,6,8,2020-10-18 23:19:41.994
5,22,2,6,2,9,12,6,54,2,38,4,7,8,2020-10-18 23:19:42.000
3,8,19,7,4,6,12,2,63,8,40,6,7,6,2020-10-18 23:19:42.006
3,19,8,6,2,3,8,15,2,73,8,41,8,7,2020-10-18 23:19:42.011
2,2,20,6,5,4,3,18,2,83,8,43,6,4,2020-10-18 23:19:42.017
3,4,23,4,8,8,8,19,4,72,8,34,8,7,2020-10-18 23:19:42.023
4,6,26,2,10,6,14,6,20,6,61,8,26,6,7,6,2020-10-18 23:19:42.027
5,26,2,10,8,16,8,22,4,59,6,40,4,10,4,2020-10-18 23:19:42.033
4,6,26,6,11,4,17,17,4,50,6,54,2,12,2,2020-10-18 23:19:42.039
4,24,8,12,2,20,8,12,8,39,60,12,4,2020-10-18 23:19:42.046
2,6,19,4,11,2,18,8,12,4,30,61,10,8,2020-10-18 23:19:42.051
3,4,14,4,8,6,18,4,15,2,25,57,9,4,2020-10-18 23:19:42.057
3,6,12,6,10,18,2,8,19,2,46,6,7,4,2020-10-18 23:19:42.063
4,6,10,4,11,20,7,6,20,2,36,2,6,4,2020-10-18 23:19:42.068
5,8,10,4,11,8,18,2,6,8,23,8,33,8,7,2020-10-18 23:19:42.074
7,4,14,2,17,15,6,10,2,42,6,40,2,7,2,2020-10-18 23:19:42.081
6,8,17,6,23,8,11,4,10,4,57,4,51,6,7,2,2020-10-18 23:19:42.086
6,8,25,4,21,9,8,12,6,62,57,8,7,4,2020-10-18 23:19:42.092
6,8,33,2,18,2,8,2,14,8,66,6,64,7,6,2020-10-18 23:19:42.098
9,6,42,4,16,2,8,8,15,6,77,6,69,6,9,8,2020-10-18 23:19:42.104
12,47,8,9,8,10,2,12,2,73,4,66,4,12,4,2020-10-18 23:19:42.109
10,4,43,6,5,4,10,10,2,75,6,69,8,13,2,2020-10-18 23:19:42.116
9,2,35,4,8,2,10,6,10,2,88,4,75,8,13,4,2020-10-18 23:19:42.123
9,4,27,2,8,6,9,6,12,89,2,83,4,15,6,2020-10-18 23:19:42.128
6,8,17,6,8,2,6,4,15,2,83,6,91,6,15,8,2020-10-18 23:19:42.134
5,4,12,10,4,7,2,14,70,4,79,6,15,2020-10-18 23:19:42.139
8,16,10,6,9,6,11,4,50,8,61,16,2020-10-18 23:19:42.144
10,6,20,10,8,12,8,8,31,2,42,4,17,2020-10-18 23:19:42.150
9,4,18,6,13,2,14,8,8,26,4,23,14,2,2020-10-18 23:19:42.156
8,22,16,16,2,10,2,26,8,11,10,4,2020-10-18 23:19:42.162
5,4,21,4,16,2,13,6,16,8,34,8,19,2,7,6,2020-10-18 23:19:42.168
2,8,20,8,16,4,11,23,4,42,8,27,4,4,8,2020-10-18 23:19:42.173
0,6,18,16,8,8,24,6,45,8,33,2,2020-10-18 23:19:42.179
2,4,18,6,14,2,7,25,46,2,36,6,1,6,2020-10-18 23:19:42.185
4,4,14,4,11,2,7,4,22,4,41,4,32,8,2,2,2020-10-18 23:19:42.190
6,4,10,2,8,2,7,8,19,8,36,6,29,2,8,2020-10-18 23:19:42.196
7,4,7,8,5,8,2,16,27,2,23,3,2,2020-10-18 23:19:42.202
8,7,6,1,6,9,17,6,22,8,19,6,3,6,2020-10-18 23:19:42.208
8,8,9,8,3,4,13,16,36,6,36,6,7,2,2020-10-18 23:19:42.213
9,6,12,5,2,17,14,4,50,4,53,6,10,8,2020-10-18 23:19:42.219
8,11,4,7,2,19,8,16,2,45,52,8,10,6,2020-10-18 23:19:42.225
7,4,9,9,4,22,6,19,2,44,2,54,2,10,6,2020-10-18 23:19:42.231
7,2,8,10,4,21,6,18,58,59,4,10,8,2020-10-18 23:19:42.237
5,5,4,9,8,16,20,4,51,4,39,6,7,2020-10-18 23:19:42.242
2,4,4,4,7,8,14,2,20,8,32,6,19,4,4,2020-10-18 23:19:42.248
2,2,6,2,5,6,13,6,17,8,33,16,2,5,6,2020-10-18 23:19:42.254
2,2,7,4,3,6,9,8,16,6,46,6,25,6,6,2,2020-10-18 23:19:42.259
3,6,13,6,3,4,10,8,18,2,34,6,22,4,6,2,2020-10-18 23:19:42.265
5,2,21,2,8,12,4,16,6,24,6,25,6,4,2020-10-18 23:19:42.271
5,4,28,8,5,8,10,2,17,6,24,8,26,6,5,2,2020-10-18 23:19:42.284
5,6,36,6,8,8,8,18,6,25,28,2,4,2020-10-18 23:19:42.289
7,4,36,8,11,6,14,8,20,6,28,8,17,6,3,4,2020-10-18 23:19:42.295
7,4,30,6,13,8,20,6,24,43,6,15,8,3,2,2020-10-18 23:19:42.302
7,4,24,4,16,26,4,27,4,58,4,14,3,2020-10-18 23:19:42.307
8,17,8,15,27,4,26,2,60,2,12,2,3,2,2020-10-18 23:19:42.313
8,4,8,8,12,2,27,8,25,69,8,13,2,8,2020-10-18 23:19:42.318
7,8,9,4,22,4,21,62,6,13,8,2,4,2020-10-18 23:19:42.323
10,10,2,8,2,19,6,18,60,2,15,4,2,2,2020-10-18 23:19:42.330
13,12,4,7,16,8,15,57,8,17,2,2020-10-18 23:19:42.336
12,6,10,4,7,6,16,17,2,59,19,2,1,8,2020-10-18 23:19:42.342
12,4,10,8,10,15,8,19,4,52,4,18,8,2,2,2020-10-18 23:19:42.348
12,8,11,6,14,16,2,19,6,58,22,8,2,6,2020-10-18 23:19:42.354
8,8,9,4,16,4,14,18,8,58,8,26,2,8,2020-10-18 23:19:42.359
4,8,7,2,18,8,11,8,18,59,6,29,2,3,2020-10-18 23:19:42.366
4,6,7,2,16,4,10,6,13,2,61,8,26,2,2,6,2020-10-18 23:19:42.371
4,4,7,2,14,9,4,8,4,64,23,2,2,2,2020-10-18 23:19:42.377
3,6,6,8,10,7,6,5,6,54,15,8,1,8,2020-10-18 23:19:42.383
3,8,5,6,7,2,8,8,2,55,4,23,6,2,2020-10-18 23:19:42.389
3,4,4,6,3,2,8,2,5,8,41,4,16,2,1,8,2020-10-18 23:19:42.394
3,4,5,2,4,4,9,7,2,40,8,17,2,2020-10-18 23:19:42.401
3,4,5,8,5,6,9,8,8,6,40,2,17,8,2,2,2020-10-18 23:19:42.406
3,4,6,4,6,8,10,6,10,39,6,18,6,2,4,2020-10-18 23:19:42.412
2,8,6,6,6,2,12,6,17,2,47,28,8,6,2020-10-18 23:19:42.417
4,6,6,6,6,8,16,4,19,49,35,5,8,2020-10-18 23:19:42.423
6,8,5,4,6,2,21,4,19,8,47,6,40,4,5,6,2020-10-18 23:19:42.429
9,4,2,5,6,26,4,20,6,46,2,45,8,5,4,2020-10-18 23:19:42.434
10,8,6,4,4,25,4,23,53,6,45,4,6,2,2020-10-18 23:19:42.441
12,2,9,8,3,21,14,2,41,6,20,4,3,2020-10-18 23:19:42.448
11,11,4,5,2,14,4,17,39,17,2,3,6,2020-10-18 23:19:42.453
8,8,13,5,8,16,8,38,8,15,8,4,6,2020-10-18 23:19:42.459
6,6,14,6,4,8,1,6,16,6,38,6,14,4,5,6,2020-10-18 23:19:42.465
4,8,12,8,5,6,1,2,14,8,29,6,18,8,5,6,2020-10-18 23:19:42.471
2,6,10,6,8,1,6,14,21,6,18,4,4,8,2020-10-18 23:19:42.477
5,2,12,2,7,4,3,4,14,4,33,8,33,2,7,6,2020-10-18 23:19:42.484
8,8,13,8,9,2,5,17,8,43,6,46,2,10,2020-10-18 23:19:42.489
12,4,15,4,11,6,6,21,2,53,4,59,2,12,4,2020-10-18 23:19:42.494
13,4,15,13,2,9,4,19,4,62,6,59,6,11,6,2020-10-18 23:19:42.501
14,8,15,13,8,11,4,16,6,70,8,64,8,11,6,2020-10-18 23:19:42.507
11,11,6,13,2,10,8,13,4,64,4,57,6,9,6,2020-10-18 23:19:42.512
7,2,8,2,12,6,10,2,10,2,58,50,4,7,6,2020-10-18 23:19:42.518
4,6,9,6,10,10,6,2,48,4,33,6,4,4,2020-10-18 23:19:42.524
4,6,13,7,8,6,7,4,39,4,29,4,4,4,2020-10-18 23:19:42.529
3,6,14,2,7,6,6,8,12,2,39,4,37,6,5,2,2020-10-18 23:19:42.534
3,8,16,8,9,2,6,8,15,45,2,40,4,4,8,2020-10-18 23:19:42.541
3,8,19,7,6,9,4,17,4,37,6,38,4,5,2020-10-18 23:19:42.547
2,6,16,4,8,11,6,20,6,33,2,46,6,4,2020-10-18 23:19:42.553
5,23,8,11,8,10,2,22,6,32,8,52,2,10,4,2020-10-18 23:19:42.558
8,4,33,4,12,9,2,21,23,4,46,13,6,2020-10-18 23:19:42.564
8,2,32,9,9,8,16,4,20,4,40,2,12,6,2020-10-18 23:19:42.569
8,2,30,8,9,2,7,2,15,24,32,6,11,6,2020-10-18 23:19:42.581
8,2,29,6,9,4,4,6,13,6,27,6,25,10,6,2020-10-18 23:19:42.587
4,6,18,4,6,2,5,6,13,4,27,2,18,8,7,2020-10-18 23:19:42.592
1,4,6,8,3,4,6,11,37,2,25,6,4,2,2020-10-18 23:19:42.597
4,6,8,8,5,6,5,6,13,4,32,6,24,4,8,2020-10-18 23:19:42.604
7,8,11,7,8,5,8,13,34,8,29,4,8,2020-10-18 23:19:42.609
11,13,2,10,6,12,6,37,34,4,8,2020-10-18 23:19:42.615
11,6,12,4,10,4,5,11,6,33,6,35,4,2,2020-10-18 23:19:42.621
11,8,17,8,10,4,6,4,16,29,2,32,6,5,2,2020-10-18 23:19:42.626
9,4,16,2,10,8,6,4,18,2,45,4,48,2,8,4,2020-10-18 23:19:42.632
7,14,6,11,2,6,4,20,4,61,6,63,8,11,6,2020-10-18 23:19:42.639
4,6,13,11,6,6,4,22,6,77,8,79,4,14,8,2020-10-18 23:19:42.645
4,6,12,8,13,6,6,21,4,78,8,79,6,15,2,2020-10-18 23:19:42.651
5,9,14,2,5,6,17,72,71,13,2020-10-18 23:19:42.656
5,2,9,6,13,2,5,2,13,52,8,52,4,9,4,2020-10-18 23:19:42.662
4,4,8,8,10,6,5,9,2,31,6,34,5,4,2020-10-18 23:19:42.668
3,6,8,8,4,8,5,4,10,4,15,6,1,4,2020-10-18 23:19:42.673
4,8,6,7,8,5,2,16,2,18,4,2,6,2020-10-18 23:19:42.678
4,8,5,6,14,4,4,4,16,18,3,2020-10-18 23:19:42.684
4,8,5,2,21,3,6,15,8,17,6,3,4,2020-10-18 23:19:42.690
5,9,4,6,4,27,4,2,6,17,6,17,4,2,2020-10-18 23:19:42.696
5,12,4,7,6,29,2,5,4,17,2,16,6,4,4,2020-10-18 23:19:42.702
4,16,2,9,28,8,8,6,10,6,14,4,2,8,2020-10-18 23:19:42.707
5,2,19,4,7,8,21,6,10,2,12,8,15,2,3,2,2020-10-18 23:19:42.714
6,4,22,6,6,6,14,4,11,8,15,16,3,6,2020-10-18 23:19:42.719
5,8,20,2,6,7,14,14,6,18,4,3,2020-10-18 23:19:42.725
6,2,16,2,5,4,4,2,12,4,16,4,20,6,3,2020-10-18 23:19:42.731
6,2,13,8,4,4,2,6,9,6,18,6,19,4,3,4,2020-10-18 23:19:42.737
5,6,8,2,5,4,3,4,9,14,19,6,3,6,2020-10-18 23:19:42.742
5,2,6,6,4,4,2,8,4,9,4,19,8,3,8,2020-10-18 23:19:42.749
6,2,2,6,6,8,5,2,7,2,7,4,18,4,5,2020-10-18 23:19:42.755
6,8,3,4,7,4,6,2,6,4,16,4,28,2,5,8,2020-10-18 23:19:42.761
6,8,2,2,6,6,6,8,5,6,18,2,28,6,5,6,2020-10-18 23:19:42.767
5,2,2,6,5,7,6,4,8,22,4,27,4,6,2020-10-18 23:19:42.772
4,2,8,3,4,6,8,7,4,29,27,4,3,8,2020-10-18 23:19:42.777
2,6,8,2,2,6,6,8,7,6,31,2,26,2,2,4,2020-10-18 23:19:42.784
1,6,7,6,1,6,6,8,7,4,22,4,13,8,1,4,2020-10-18 23:19:42.789
1,6,7,4,2,4,6,8,4,20,4,14,2,1,2020-10-18 23:19:42.795
1,8,7,6,2,6,4,6,8,6,22,2,12,2,0,6,2020-10-18 23:19:42.801
1,4,2,8,5,2,9,6,6,16,8,11,2,0,2,2020-10-18 23:19:42.806
1,6,3,2,7,13,8,5,8,15,8,11,8,0,4,2020-10-18 23:19:42.812
1,8,3,6,8,8,18,5,6,14,8,12,4,0,6,2020-10-18 23:19:42.819
2,8,4,2,8,2,18,7,2,17,4,11,1,2020-10-18 23:19:42.825
3,6,4,4,8,2,18,6,9,6,16,2,12,1,4,2020-10-18 23:19:42.830
4,2,5,4,7,2,13,8,9,8,15,4,9,2,1,6,2020-10-18 23:19:42.835
4,8,6,4,6,2,9,10,14,6,6,4,1,8,2020-10-18 23:19:42.841
4,4,6,6,3,6,4,2,10,14,4,4,2,4,2020-10-18 23:19:42.847
3,4,7,4,3,6,3,2,8,4,10,4,4,4,2,2020-10-18 23:19:42.852
3,8,4,8,3,2,7,8,8,8,3,4,2,2020-10-18 23:19:42.857
2,8,7,8,4,6,3,8,8,8,11,6,3,2,2,2020-10-18 23:19:42.869
2,6,7,6,4,4,4,4,9,8,14,4,3,2,2020-10-18 23:19:42.874
3,2,7,4,6,8,4,4,11,14,6,2,2,1,4,2020-10-18 23:19:42.881
3,6,6,4,9,4,8,12,14,2,1,4,1,6,2020-10-18 23:19:42.886
5,6,2,8,3,8,11,6,12,3,4,2,2020-10-18 23:19:42.892
5,6,2,7,2,5,2,10,6,13,6,4,2,1,8,2020-10-18 23:19:42.899
4,6,5,4,6,8,8,4,10,8,11,2,5,6,1,4,2020-10-18 23:19:42.905
4,4,5,4,5,4,12,2,11,11,2,6,8,1,2,2020-10-18 23:19:42.910
4,2,5,4,4,16,11,2,11,2,8,1,2020-10-18 23:19:42.917
2,2,4,4,4,16,4,10,2,12,2,7,4,0,8,2020-10-18 23:19:42.922
1,8,3,4,4,8,14,11,7,2,6,6,1,8,2020-10-18 23:19:42.927
1,8,3,2,5,2,9,8,10,6,6,2,5,2,3,2020-10-18 23:19:42.933
1,8,3,5,6,5,6,10,2,5,2,3,8,4,2,2020-10-18 23:19:42.938
1,4,2,4,4,8,2,2,7,8,5,2,3,4,8,2020-10-18 23:19:42.944
1,2,2,2,4,6,2,6,7,4,2,2,4,8,2020-10-18 23:19:42.950
1,2,2,3,6,3,4,6,5,8,2,4,4,8,2020-10-18 23:19:42.955
0,8,2,2,2,6,4,2,5,7,6,2,6,4,8,2020-10-18 23:19:42.962
0,8,2,4,1,6,4,4,3,8,2,4,2,4,2020-10-18 23:19:42.967
1,2,3,1,8,3,8,3,7,8,5,2,3,8,2020-10-18 23:19:42.973
1,8,3,4,1,8,3,8,3,2,7,4,5,6,4,2020-10-18 23:19:42.979
2,2,4,4,1,8,3,8,3,7,5,8,3,4,2020-10-18 23:19:42.985
2,6,5,4,1,8,3,8,2,8,6,6,6,2,8,2020-10-18 23:19:42.991
2,8,6,2,1,8,4,4,3,6,7,4,4,8,3,2020-10-18 23:19:42.996
2,4,5,8,1,8,4,4,3,8,6,6,3,2,3,2020-10-18 23:19:43.002
1,8,5,6,2,3,8,3,8,5,8,2,2,2,6,2020-10-18 23:19:43.008
1,6,5,2,3,2,8,4,2,4,2,2,2020-10-18 23:19:43.013
1,4,4,4,2,2,2,1,8,2,6,5,8,1,8,2020-10-18 23:19:43.019
1,4,3,2,1,6,1,8,0,8,1,8,6,6,2,2020-10-18 23:19:43.025
2,3,2,1,2,2,0,4,2,6,7,8,2,4,2020-10-18 23:19:43.031
2,3,1,4,1,8,0,4,2,8,7,8,2,2,2020-10-18 23:19:43.036
1,6,2,2,1,6,1,8,0,8,3,5,6,2,2,2020-10-18 23:19:43.042
1,8,1,6,1,4,1,8,1,3,3,4,2,4,2020-10-18 23:19:43.048
1,8,1,6,1,6,1,4,1,2,2,2,2,2,2,2020-10-18 23:19:43.054
1,6,1,8,2,2,1,2,1,4,2,1,2,1,4,2020-10-18 23:19:43.059
1,8,2,2,1,8,1,4,1,2,1,4,1,4,2020-10-18 23:19:43.065
2,2,6,1,4,1,6,0,6,2,1,6,1,4,2020-10-18 23:19:43.071
1,4,2,2,1,4,2,4,0,6,2,6,1,6,1,2020-10-18 23:19:43.076
1,2,4,2,4,2,4,0,4,3,2,1,8,2,8,2020-10-18 23:19:43.084
0,8,2,4,3,2,2,0,2,3,2,1,8,4,8,2020-10-18 23:19:43.089
0,8,2,4,4,2,0,2,3,6,1,8,6,8,2020-10-18 23:19:43.094
1,2,2,4,4,8,3,0,8,3,6,1,4,6,8,2020-10-18 23:19:43.101
1,6,3,6,4,2,6,1,4,2,8,4,2020-10-18 23:19:43.106
1,8,3,7,3,1,4,4,4,2,4,7,8,2020-10-18 23:19:43.111
2,3,7,6,3,4,1,8,4,8,2,8,7,2,2020-10-18 23:19:43.118
2,6,3,2,8,4,3,8,2,4,4,2,2,8,5,8,2020-10-18 23:19:43.124
2,8,3,4,9,4,3,2,4,4,3,2,6,4,2020-10-18 23:19:43.129
3,2,3,6,9,6,3,2,6,3,2,8,5,6,2020-10-18 23:19:43.134
3,6,3,8,9,8,3,2,8,2,2,4,4,8,2020-10-18 23:19:43.140
3,2,3,8,8,4,2,6,2,4,0,8,1,8,3,2,2020-10-18 23:19:43.145
2,4,3,6,6,8,2,2,1,8,0,6,1,6,2,4,2020-10-18 23:19:43.152
2,4,6,2,6,1,4,0,4,1,6,1,8,2020-10-18 23:19:43.157
1,6,4,6,8,4,3,0,8,0,8,1,6,1,2,2020-10-18 23:19:43.163
1,2,5,2,10,8,3,4,0,2,1,2,1,6,0,6,2020-10-18 23:19:43.168
1,6,6,14,8,4,2,0,2,1,8,1,8,0,8,2020-10-18 23:19:43.179
2,5,6,16,4,2,0,4,1,8,1,8,1,8,2020-10-18 23:19:43.186
2,4,6,16,4,3,4,0,4,1,8,1,6,2,6,2020-10-18 23:19:43.190
1,8,3,2,16,8,3,2,0,6,1,4,1,4,3,4,2020-10-18 23:19:43.197
2,3,4,12,6,2,4,1,4,1,1,3,8,2020-10-18 23:19:43.202
1,8,2,8,8,1,4,1,6,0,6,0,6,3,8,2020-10-18 23:19:43.207
1,6,1,8,7,8,1,2,1,6,0,8,0,4,3,2020-10-18 23:19:43.214
1,2,2,6,7,6,1,6,1,6,0,8,0,6,2,2020-10-18 23:19:43.220
1,4,2,8,2,8,5,2,2,2,1,0,8,1,2,2020-10-18 23:19:43.225
1,2,1,4,2,6,9,4,2,2,1,2,1,2,0,8,2020-10-18 23:19:43.231
1,4,1,6,2,13,8,2,8,1,4,1,6,0,8,2020-10-18 23:19:43.237
1,8,3,2,1,8,15,2,8,1,2,2,0,8,2020-10-18 23:19:43.242
2,4,3,8,0,8,15,6,2,8,1,2,2,1,2020-10-18 23:19:43.248
2,4,4,6,3,2,12,8,2,8,1,2,1,6,1,2,2020-10-18 23:19:43.254
2,4,5,4,5,6,10,2,8,1,2,1,2,1,4,2020-10-18 23:19:43.259
2,4,6,6,4,6,4,2,0,8,1,2,1,2,2020-10-18 23:19:43.265
2,2,5,2,6,8,6,1,8,0,8,1,2,1,2020-10-18 23:19:43.271
2,4,4,7,2,5,6,1,6,0,8,1,2,0,8,2020-10-18 23:19:43.276
2,2,3,6,5,4,5,0,8,0,6,2,0,8,2020-10-18 23:19:43.283
1,8,2,6,4,3,4,0,0,4,2,0,4,2020-10-18 23:19:43.288
1,4,1,8,4,2,2,6,0,0,6,1,6,0,4,2020-10-18 23:19:43.293
1,1,4,4,1,8,0,0,8,1,2,0,4,2020-10-18 23:19:43.299
1,2,1,3,8,1,2,0,6,1,4,1,2,1,2,2020-10-18 23:19:43.305
1,2,1,6,3,4,0,4,1,2,1,8,0,8,1,6,2020-10-18 23:19:43.310
1,4,2,4,3,1,2,1,6,2,1,1,8,2020-10-18 23:19:43.317
3,4,3,6,1,6,1,6,2,1,2,2,4,2020-10-18 23:19:43.323
4,6,5,6,4,2,2,1,6,2,1,4,3,2020-10-18 23:19:43.328
5,6,6,4,5,6,2,2,1,1,6,1,2,2,8,2020-10-18 23:19:43.333
5,2,6,4,5,8,7,2,0,6,3,2,1,6,2,2020-10-18 23:19:43.339
5,6,6,2,5,4,7,1,3,8,2,2,1,8,2020-10-18 23:19:43.345
4,6,5,2,4,7,2,1,8,4,6,2,8,1,2,2020-10-18 23:19:43.351
3,6,4,2,2,6,7,4,2,6,5,4,3,4,0,6,2020-10-18 23:19:43.356
2,2,4,1,8,7,6,4,8,17,2,9,8,1,2020-10-18 23:19:43.363
2,2,4,6,2,2,3,6,8,27,15,6,2,2020-10-18 23:19:43.368
2,4,4,2,8,3,6,8,6,50,2,28,6,3,6,2020-10-18 23:19:43.375
2,6,3,4,3,4,4,2,10,4,73,4,41,6,5,2,2020-10-18 23:19:43.380
2,4,4,6,3,2,4,2,10,8,83,6,44,4,5,8,2020-10-18 23:19:43.386
2,6,5,2,4,4,2,9,8,82,8,41,4,5,4,2020-10-18 23:19:43.391
2,6,4,2,2,5,9,8,74,4,35,8,4,8,2020-10-18 23:19:43.397
2,4,4,2,5,2,9,4,53,8,23,3,6,2020-10-18 23:19:43.403
2,6,4,6,1,4,4,8,7,4,42,8,24,2,5,2,2020-10-18 23:19:43.408
3,6,3,1,6,5,6,8,44,8,35,6,7,8,2020-10-18 23:19:43.414
4,6,1,4,1,8,5,2,6,2,46,8,47,10,4,2020-10-18 23:19:43.420
5,2,3,4,1,2,4,2,4,2,43,8,46,4,10,8,2020-10-18 23:19:43.426
6,2,3,4,1,2,3,4,2,8,52,2,58,6,11,6,2020-10-18 23:19:43.432
7,4,4,2,3,4,3,4,4,49,4,53,11,2,2020-10-18 23:19:43.437
8,2,4,5,8,2,6,4,2,50,4,54,2,11,2,2020-10-18 23:19:43.444
9,3,8,8,2,2,2,4,51,4,55,4,11,2,2020-10-18 23:19:43.450
8,4,3,2,8,8,3,4,55,4,56,4,10,4,2020-10-18 23:19:43.456
8,2,5,8,12,4,5,8,50,46,4,11,2020-10-18 23:19:43.462
6,6,7,8,13,4,5,2,6,2,46,2,40,2,10,2020-10-18 23:19:43.468
5,4,10,8,14,6,6,4,8,4,38,6,27,2,8,6,2020-10-18 23:19:43.479
3,4,14,13,2,8,4,12,8,27,4,11,6,6,2020-10-18 23:19:43.485
3,4,15,4,13,8,9,6,17,4,25,8,10,8,6,6,2020-10-18 23:19:43.490
3,13,8,10,2,10,6,18,40,6,22,4,6,4,2020-10-18 23:19:43.496
2,6,12,2,6,6,11,6,18,6,55,4,34,6,2,2020-10-18 23:19:43.502
3,4,14,2,3,8,13,19,50,2,32,4,5,8,2020-10-18 23:19:43.507
5,16,3,6,13,6,17,2,48,6,33,4,6,6,2020-10-18 23:19:43.513
5,4,13,8,2,6,15,4,12,6,46,2,35,2,6,2,2020-10-18 23:19:43.519
5,14,2,2,8,13,4,12,8,50,4,36,2,5,8,2020-10-18 23:19:43.524
6,4,13,8,3,6,11,8,13,2,42,2,33,6,6,8,2020-10-18 23:19:43.530
6,6,9,8,3,6,9,8,13,8,54,44,2,8,2020-10-18 23:19:43.536
5,2,5,2,3,8,6,8,11,8,57,2,45,7,2,2020-10-18 23:19:43.541
4,8,7,2,7,6,12,13,70,50,2,8,4,2020-10-18 23:19:43.549
5,9,4,9,6,15,2,11,2,52,39,4,7,8,2020-10-18 23:19:43.554
3,4,12,4,11,18,9,2,46,4,32,2,5,8,2020-10-18 23:19:43.559
4,12,2,10,6,20,2,7,8,45,28,2,7,2,2020-10-18 23:19:43.566
6,2,12,6,10,23,4,9,52,2,34,10,6,2020-10-18 23:19:43.572
6,8,10,6,16,4,12,8,52,4,43,2,11,4,2020-10-18 23:19:43.577
7,2,6,4,3,6,15,16,4,58,4,55,13,2020-10-18 23:19:43.583
8,2,4,4,1,4,12,2,17,4,66,8,64,4,15,4,2020-10-18 23:19:43.589
7,5,6,1,10,17,8,71,70,6,14,4,2020-10-18 23:19:43.594
5,5,2,0,4,7,6,16,6,64,2,66,4,10,4,2020-10-18 23:19:43.600
4,8,6,2,2,2,7,13,8,68,60,8,9,8,2020-10-18 23:19:43.606
4,6,7,2,4,6,4,11,71,8,55,2,9,2,2020-10-18 23:19:43.611
3,8,6,6,5,6,7,2,10,8,73,2,52,7,8,2020-10-18 23:19:43.617
3,6,7,2,8,10,6,74,6,48,8,6,4,2020-10-18 23:19:43.623
3,6,12,7,4,13,14,2,86,8,64,8,9,6,2020-10-18 23:19:43.628
4,2,17,5,8,17,16,4,86,6,73,6,11,2,2020-10-18 23:19:43.634
4,6,16,6,6,6,16,6,15,4,70,6,69,4,10,2020-10-18 23:19:43.640
4,8,16,6,7,15,2,15,71,4,59,8,8,6,2020-10-18 23:19:43.645
5,16,6,7,4,13,8,14,6,72,2,50,2,7,2,2020-10-18 23:19:43.652
4,6,11,6,9,4,8,4,12,73,2,31,8,4,2,2020-10-18 23:19:43.657
4,4,6,2,9,2,4,8,6,63,2,27,8,2,2,2020-10-18 23:19:43.663
4,4,6,2,6,6,4,8,4,69,36,8,3,2020-10-18 23:19:43.669
3,8,5,8,5,2,6,11,4,64,8,52,4,8,2020-10-18 23:19:43.674
3,2,5,4,3,8,8,14,4,60,6,67,2,6,6,2020-10-18 23:19:43.679
4,2,4,8,2,6,8,2,14,56,85,10,2,2020-10-18 23:19:43.685
5,4,6,3,6,7,4,14,4,62,4,88,4,12,8,2020-10-18 23:19:43.691
4,2,5,4,4,8,7,4,18,6,80,6,86,13,6,2020-10-18 23:19:43.697
4,2,6,2,5,2,6,4,19,92,82,8,13,6,2020-10-18 23:19:43.703
5,2,6,2,5,6,4,14,6,82,68,8,12,8,2020-10-18 23:19:43.708
4,6,6,4,5,8,3,4,13,6,72,4,52,2,10,2,2020-10-18 23:19:43.714
4,6,4,7,3,6,13,62,4,50,6,10,2020-10-18 23:19:43.721
5,14,2,8,2,6,4,15,6,55,8,52,4,12,2020-10-18 23:19:43.726
6,22,9,4,9,2,18,2,49,2,54,2,14,2020-10-18 23:19:43.732
6,30,6,10,6,13,4,25,6,64,66,8,16,8,2020-10-18 23:19:43.737
5,8,32,10,8,16,8,26,4,63,78,18,2,2020-10-18 23:19:43.744
5,6,33,6,10,19,4,26,8,62,4,74,2,17,2,2020-10-18 23:19:43.750
5,4,26,4,9,18,6,20,2,46,6,72,8,15,8,2020-10-18 23:19:43.755
5,4,18,8,6,17,2,13,38,6,66,4,11,8,2020-10-18 23:19:43.761
4,8,8,8,7,6,14,5,22,55,8,2,2020-10-18 23:19:43.768
4,4,6,8,7,6,11,6,3,6,21,2,45,6,2020-10-18 23:19:43.773
6,6,11,4,9,8,4,2,6,19,6,34,6,6,2,2020-10-18 23:19:43.778
6,2,10,4,7,8,6,8,2,4,21,6,27,2,4,8,2020-10-18 23:19:43.790
5,6,10,6,6,5,8,2,8,15,8,24,8,6,2020-10-18 23:19:43.795
5,6,11,6,4,8,6,6,4,18,6,27,4,6,8,2020-10-18 23:19:43.801
7,2,18,4,4,2,6,8,4,2,16,4,27,4,7,2020-10-18 23:19:43.806
6,2,18,6,2,2,7,8,4,15,27,8,4,8,2020-10-18 23:19:43.812
6,8,17,4,3,9,3,4,14,2,25,2,4,6,2020-10-18 23:19:43.817
7,4,16,2,3,8,10,2,2,8,13,4,22,6,4,4,2020-10-18 23:19:43.823
7,4,14,8,4,9,5,2,27,2,32,2,6,6,2020-10-18 23:19:43.828
5,8,7,6,3,6,8,4,8,6,46,44,4,9,4,2020-10-18 23:19:43.834
5,2,1,2,3,4,9,8,9,50,6,42,10,2,2020-10-18 23:19:43.840
5,6,1,8,3,9,4,9,51,39,6,10,6,2020-10-18 23:19:43.845
5,6,4,6,9,8,8,6,50,41,4,10,2,2020-10-18 23:19:43.850
5,10,4,6,8,12,6,5,2,34,4,31,7,4,2020-10-18 23:19:43.857
5,14,8,9,15,4,1,8,18,8,20,6,4,6,2020-10-18 23:19:43.861
3,8,16,4,8,6,13,8,2,2,30,8,30,4,5,2020-10-18 23:19:43.867
2,6,18,8,2,12,2,2,6,42,8,40,2,5,4,2020-10-18 23:19:43.872
2,16,2,6,8,12,6,3,6,52,4,44,6,6,2,2020-10-18 23:19:43.878
3,4,14,4,6,4,9,8,4,6,51,6,47,4,7,4,2020-10-18 23:19:43.885
4,8,12,6,6,7,5,6,50,8,50,2,8,6,2020-10-18 23:19:43.891
6,4,12,8,8,6,6,5,8,36,6,47,4,8,6,2020-10-18 23:19:43.896
6,4,12,6,10,4,7,8,37,42,4,8,4,2020-10-18 23:19:43.902
7,2,11,6,9,4,8,7,2,25,4,34,6,7,8,2020-10-18 23:19:43.908
6,10,6,7,4,12,2,6,4,24,2,28,4,6,8,2020-10-18 23:19:43.913
4,8,9,6,5,4,16,4,5,6,23,22,2,5,8,2020-10-18 23:19:43.919
3,6,11,3,4,18,2,11,38,26,8,7,4,2020-10-18 23:19:43.925
4,12,8,1,19,2,14,4,38,4,33,6,9,2,2020-10-18 23:19:43.930
3,6,16,1,8,16,4,15,8,41,4,43,6,10,2020-10-18 23:19:43.935
3,2,19,2,2,6,13,6,17,2,44,4,53,6,10,8,2020-10-18 23:19:43.942
3,6,23,3,8,9,4,19,6,48,8,54,2,10,2,2020-10-18 23:19:43.948
4,24,4,5,7,6,15,8,37,44,7,2020-10-18 23:19:43.953
4,4,25,8,6,2,5,8,12,25,2,33,8,3,8,2020-10-18 23:19:43.958
5,6,24,8,2,6,6,15,8,46,4,46,8,6,4,2020-10-18 23:19:43.966
6,21,4,8,8,8,15,2,43,8,35,2,5,4,2020-10-18 23:19:43.970
5,6,18,2,9,10,8,13,6,39,8,33,5,8,2020-10-18 23:19:43.976
5,2,15,9,2,13,6,12,35,8,30,8,6,2,2020-10-18 23:19:43.983
5,2,11,8,9,2,14,2,13,6,36,35,8,9,2,2020-10-18 23:19:43.988
4,8,11,7,6,12,6,12,4,16,4,18,4,8,2,2020-10-18 23:19:43.993
6,10,2,6,4,10,4,12,8,24,6,34,6,12,2,2020-10-18 23:19:43.999
6,2,8,6,5,2,8,4,12,8,28,8,48,2,14,4,2020-10-18 23:19:44.005
6,4,7,4,6,4,12,8,33,61,8,16,6,2020-10-18 23:19:44.010
6,2,5,4,3,6,6,9,6,33,68,2,16,2,2020-10-18 23:19:44.016
5,2,4,6,3,4,7,6,2,34,2,68,14,2,2020-10-18 23:19:44.022
3,6,3,2,3,2,6,6,5,4,34,4,51,6,10,2,2020-10-18 23:19:44.028
3,2,6,3,6,5,38,6,37,8,8,2020-10-18 23:19:44.034
2,4,2,2,8,5,4,4,6,42,8,24,5,8,2020-10-18 23:19:44.039
3,4,4,3,8,4,4,3,4,47,6,15,6,4,8,2020-10-18 23:19:44.045
5,2,5,2,3,4,3,2,2,4,51,2,13,8,5,4,2020-10-18 23:19:44.051
6,7,4,4,2,4,7,6,63,4,15,4,5,6,2020-10-18 23:19:44.056
6,8,8,8,5,4,1,6,12,8,75,6,17,5,8,2020-10-18 23:19:44.061
6,8,13,8,6,8,1,4,12,8,72,18,6,5,6,2020-10-18 23:19:44.067
5,2,16,2,7,1,6,13,6,67,8,14,8,4,2,2020-10-18 23:19:44.073
3,6,18,6,7,2,1,8,14,4,63,6,11,2,8,2020-10-18 23:19:44.078
2,6,19,8,2,2,8,4,43,6,10,8,2,2,2020-10-18 23:19:44.086
1,6,19,4,9,2,2,2,2,4,23,6,10,6,1,6,2020-10-18 23:19:44.090
2,2,15,6,8,2,1,6,5,6,20,9,4,3,6,2020-10-18 23:19:44.096
2,8,11,8,7,2,1,8,8,16,4,8,2,5,6,2020-10-18 23:19:44.107
3,7,4,5,8,3,2,13,2,22,2,15,2,7,2020-10-18 23:19:44.112
3,4,7,4,4,6,6,6,13,4,23,6,14,6,7,2020-10-18 23:19:44.118
3,8,7,4,3,4,10,13,6,25,14,7,2020-10-18 23:19:44.123
4,9,4,5,2,10,9,8,22,6,17,7,2020-10-18 23:19:44.129
4,2,11,4,7,10,6,20,2,20,7,2020-10-18 23:19:44.135
4,4,14,8,7,8,9,6,2,8,18,21,6,4,2020-10-18 23:19:44.140
5,6,14,8,8,8,6,4,5,2,21,2,21,6,7,6,2020-10-18 23:19:44.145
5,2,14,8,8,6,2,5,2,22,8,25,6,8,2,2020-10-18 23:19:44.151
4,2,13,8,5,8,9,6,5,2,27,6,27,6,6,2020-10-18 23:19:44.157
3,8,10,8,4,2,11,6,6,27,6,27,4,4,6,2020-10-18 23:19:44.163
4,6,8,3,8,12,4,6,19,4,22,4,4,4,2020-10-18 23:19:44.168
3,2,4,6,2,4,15,8,4,8,14,4,25,6,4,2020-10-18 23:19:44.174
4,2,4,2,8,16,2,6,11,25,4,4,2,2020-10-18 23:19:44.180
5,4,5,8,4,6,14,8,6,2,6,6,24,5,2,2020-10-18 23:19:44.185
5,2,7,6,4,14,2,6,6,12,2,26,6,6,2020-10-18 23:19:44.191
4,8,9,6,3,6,11,2,7,2,16,4,28,4,6,2,2020-10-18 23:19:44.196
4,2,11,8,4,2,10,7,2,17,26,6,5,8,2020-10-18 23:19:44.203
3,6,12,2,4,2,9,2,6,2,25,35,6,6,4,2020-10-18 23:19:44.208
2,4,7,2,8,10,2,6,2,34,45,8,6,2,2020-10-18 23:19:44.213
2,2,5,4,3,2,12,4,4,6,37,8,53,6,6,2020-10-18 23:19:44.219
2,6,2,3,4,12,2,4,8,39,6,51,8,6,2020-10-18 23:19:44.225
2,6,8,2,6,10,2,5,6,45,54,2,6,2020-10-18 23:19:44.231
5,13,4,9,6,39,8,56,6,5,2020-10-18 23:19:44.236
8,19,2,5,4,7,8,6,4,34,6,59,4,2020-10-18 23:19:44.242
9,8,23,8,5,11,4,7,2,25,54,4,4,2020-10-18 23:19:44.249
11,6,26,4,8,17,4,6,2,17,4,58,2,5,2020-10-18 23:19:44.254
11,4,24,4,5,19,8,4,4,19,8,59,5,6,2020-10-18 23:19:44.259
10,24,4,6,2,20,3,8,36,59,2,8,2,2020-10-18 23:19:44.266
8,6,24,4,7,4,20,2,3,2,52,2,59,4,10,8,2020-10-18 23:19:44.272
8,4,26,10,4,15,6,2,2,72,8,66,6,12,4,2020-10-18 23:19:44.277
7,4,21,2,10,8,11,6,2,76,4,64,2,11,2020-10-18 23:19:44.284
8,4,20,2,10,8,11,2,2,6,70,64,8,10,2020-10-18 23:19:44.289
7,6,13,8,8,2,11,8,3,4,53,55,2,7,2020-10-18 23:19:44.295
5,6,8,8,6,8,10,8,3,2,33,8,41,6,4,2020-10-18 23:19:44.301
4,2,4,4,2,10,2,4,2,13,2,28,1,2020-10-18 23:19:44.307
3,2,2,4,4,2,9,4,4,9,6,24,1,2020-10-18 23:19:44.313
2,4,2,4,4,2,7,8,4,6,6,20,1,2020-10-18 23:19:44.319
3,8,4,6,4,2,6,8,3,8,4,8,13,4,1,6,2020-10-18 23:19:44.324
3,8,6,4,4,8,6,2,4,6,4,2,15,4,2,4,2020-10-18 23:19:44.330
3,4,9,6,6,6,5,2,4,2,5,17,4,3,2,2020-10-18 23:19:44.336
3,12,8,8,4,4,2,3,8,5,8,19,4,4,2020-10-18 23:19:44.342
3,6,13,4,9,5,2,4,6,13,2,20,5,4,2020-10-18 23:19:44.347
2,11,8,9,6,6,6,4,18,2,23,2,6,2,2020-10-18 23:19:44.353
2,6,8,4,7,4,8,8,8,27,4,28,6,2020-10-18 23:19:44.358
3,2,5,5,2,10,11,2,36,6,32,8,5,8,2020-10-18 23:19:44.364
5,3,8,3,4,10,11,2,38,8,32,4,5,4,2020-10-18 23:19:44.370
5,8,5,2,2,8,8,10,34,4,33,4,4,4,2020-10-18 23:19:44.375
4,8,7,2,1,6,6,2,8,8,36,2,39,8,4,2020-10-18 23:19:44.381
4,6,9,8,2,4,5,2,10,30,8,40,2,4,6,2020-10-18 23:19:44.386
4,4,12,4,3,2,4,2,11,2,25,4,40,6,5,2,2020-10-18 23:19:44.391
3,12,8,3,6,5,2,14,8,27,46,2,6,2020-10-18 23:19:44.397
1,4,12,2,4,8,7,15,6,28,2,49,6,4,2020-10-18 23:19:44.403
1,6,11,6,6,8,6,16,4,23,2,46,4,6,2,2020-10-18 23:19:44.409
3,2,8,8,6,2,7,8,14,2,22,6,36,8,6,6,2020-10-18 23:19:44.413
3,6,7,6,7,8,7,2,13,2,20,39,8,6,8,2020-10-18 23:19:44.425
4,6,4,9,4,6,6,12,2,17,4,42,8,7,2020-10-18 23:19:44.431
4,6,6,2,10,2,5,2,14,15,2,48,6,7,6,2020-10-18 23:19:44.437
7,4,8,8,8,3,2,13,25,8,60,11,2,2020-10-18 23:19:44.442
9,2,12,9,4,5,2,13,4,29,68,6,10,2020-10-18 23:19:44.449
12,6,18,2,8,7,12,6,34,2,64,6,9,2020-10-18 23:19:44.454
16,24,4,6,6,8,8,11,8,39,4,60,6,8,2020-10-18 23:19:44.460
16,4,23,2,4,4,8,4,8,4,42,53,7,2,2020-10-18 23:19:44.466
17,4,26,6,4,4,8,4,9,42,6,52,6,8,2,2020-10-18 23:19:44.472
14,4,24,8,3,2,6,8,8,2,42,2,45,8,8,4,2020-10-18 23:19:44.479
10,2,17,4,4,6,6,2,10,4,49,8,52,6,10,8,2020-10-18 23:19:44.485
6,10,6,5,6,12,6,57,4,59,4,13,2,2020-10-18 23:19:44.490
4,8,10,8,2,7,2,17,4,67,6,69,8,15,4,2020-10-18 23:19:44.496
1,6,8,2,8,4,8,6,16,4,53,6,59,4,10,8,2020-10-18 23:19:44.503
0,8,3,2,8,8,7,6,15,8,53,62,4,10,4,2020-10-18 23:19:44.508
1,2,3,8,6,6,5,6,12,2,44,4,51,8,7,8,2020-10-18 23:19:44.513
1,6,4,4,4,4,3,6,8,6,35,8,41,2,5,2,2020-10-18 23:19:44.519
2,5,2,2,1,6,5,27,2,30,6,2,6,2020-10-18 23:19:44.525
1,8,6,3,4,0,5,2,35,6,23,6,1,6,2020-10-18 23:19:44.530
2,4,8,2,3,8,1,4,4,31,2,24,8,2,6,2020-10-18 23:19:44.536
2,6,7,4,4,8,2,9,43,4,35,6,4,2,2020-10-18 23:19:44.542
3,2,7,6,4,2,6,7,8,40,35,4,4,8,2020-10-18 23:19:44.547
3,8,6,6,8,3,2,6,6,36,6,35,2,5,4,2020-10-18 23:19:44.553
4,6,4,2,8,2,3,8,6,2,29,6,39,4,6,4,2020-10-18 23:19:44.558
6,4,3,4,8,8,6,2,9,4,41,38,2,5,8,2020-10-18 23:19:44.564
6,2,5,6,7,8,6,4,3,6,22,6,27,5,6,2020-10-18 23:19:44.570
5,6,7,4,6,2,6,6,4,19,8,26,8,6,4,2020-10-18 23:19:44.575
5,9,2,4,6,6,8,4,4,17,26,6,7,2,2020-10-18 23:19:44.581
4,2,10,2,3,2,7,5,15,2,25,8,6,6,2020-10-18 23:19:44.587
3,10,8,3,6,4,2,2,8,4,20,2,5,8,2020-10-18 23:19:44.593
4,2,11,4,5,4,4,3,4,6,15,4,2020-10-18 23:19:44.598
5,4,12,6,4,4,6,4,8,9,8,2,2,2020-10-18 23:19:44.604
5,8,10,8,6,4,4,6,4,4,8,6,5,6,0,4,2020-10-18 23:19:44.610
6,4,10,4,6,2,4,6,4,6,8,2,2,0,2020-10-18 23:19:44.616
5,2,9,2,5,2,3,8,4,4,30,2,25,4,3,4,2020-10-18 23:19:44.622
4,8,4,2,3,4,2,52,2,48,8,6,8,2020-10-18 23:19:44.627
4,2,8,4,3,2,8,6,10,58,56,8,7,2,2020-10-18 23:19:44.632
5,2,10,6,3,6,14,4,16,65,2,63,8,7,6,2020-10-18 23:19:44.637
4,8,11,4,3,6,14,6,17,2,69,4,63,8,7,6,2020-10-18 23:19:44.644
4,6,10,2,3,4,15,6,20,2,55,46,4,5,6,2020-10-18 23:19:44.650
4,4,9,3,2,16,6,23,2,40,6,29,3,6,2020-10-18 23:19:44.655
2,8,6,2,3,11,2,20,2,42,4,27,4,6,2020-10-18 23:19:44.661
3,4,10,4,3,6,5,15,43,2,29,8,6,8,2020-10-18 23:19:44.667
5,4,16,4,6,4,4,14,6,47,39,6,9,4,2020-10-18 23:19:44.672
7,6,23,5,4,3,6,12,4,46,44,4,10,6,2020-10-18 23:19:44.678
8,2,24,6,7,2,4,6,9,8,38,6,40,2,9,4,2020-10-18 23:19:44.684
8,26,6,7,6,6,4,7,2,37,8,38,8,8,2020-10-18 23:19:44.690
5,6,21,6,7,2,9,6,8,38,31,7,2020-10-18 23:19:44.695
3,2,16,6,6,8,11,6,6,4,38,2,24,5,2,2020-10-18 23:19:44.701
1,2,9,4,6,8,13,5,2,31,8,14,2,3,2020-10-18 23:19:44.707
1,2,8,8,5,11,5,4,29,8,14,4,3,2020-10-18 23:19:44.712
2,7,8,4,6,8,2,5,6,21,2,12,6,2,4,2020-10-18 23:19:44.718
2,8,6,8,4,2,5,4,5,8,12,6,10,8,1,8,2020-10-18 23:19:44.723
3,2,4,6,4,4,4,6,6,2,5,4,7,2,1,6,2020-10-18 23:19:44.729
2,8,5,4,3,8,3,2,6,2,8,6,4,2,2,2020-10-18 23:19:44.735
2,5,4,3,4,5,2,12,6,4,6,3,2020-10-18 23:19:44.741
1,6,4,6,3,4,4,2,4,16,8,6,6,3,6,2020-10-18 23:19:44.746
1,2,4,2,2,8,5,2,8,21,8,6,4,2,2020-10-18 23:19:44.757
1,6,2,2,2,3,1,6,24,8,14,4,4,6,2020-10-18 23:19:44.763
1,2,10,4,2,2,6,8,5,4,24,8,16,8,3,8,2020-10-18 23:19:44.769
1,4,14,6,2,2,10,6,9,2,24,8,19,2,3,2020-10-18 23:19:44.774
1,2,18,8,3,13,8,13,2,25,2,17,8,2,4,2020-10-18 23:19:44.780
1,4,20,3,2,13,13,4,22,4,14,2,1,6,2020-10-18 23:19:44.786
1,2,18,2,3,6,14,13,8,18,4,10,6,1,2,2020-10-18 23:19:44.791
1,13,4,3,8,11,10,4,15,10,4,1,6,2020-10-18 23:19:44.797
0,8,8,6,4,8,7,11,6,10,2,2,2020-10-18 23:19:44.803
1,2,3,6,3,4,4,4,6,8,9,4,2,6,2020-10-18 23:19:44.808
1,4,2,4,2,4,6,3,6,9,11,8,3,2020-10-18 23:19:44.814
2,2,2,2,4,2,4,2,2,8,11,4,12,2,2,8,2020-10-18 23:19:44.819
2,6,2,8,4,3,2,2,2,11,10,2,2,2,2020-10-18 23:19:44.825
3,6,5,2,3,4,2,8,2,9,8,13,6,2,4,2020-10-18 23:19:44.830
4,7,8,3,6,3,4,1,4,10,17,6,2,4,2020-10-18 23:19:44.836
4,2,10,3,3,4,2,6,4,20,6,2,8,2020-10-18 23:19:44.841
3,8,10,6,2,4,3,2,2,6,2,6,19,4,3,8,2020-10-18 23:19:44.847
3,8,10,8,2,3,6,3,1,6,20,6,5,2,2020-10-18 23:19:44.853
2,8,9,2,4,4,3,2,4,2,18,4,5,2,2020-10-18 23:19:44.858
1,8,7,2,2,5,2,3,4,6,8,16,2,5,2,2020-10-18 23:19:44.864
1,7,4,2,5,5,2,6,6,11,8,4,4,2020-10-18 23:19:44.870
0,8,9,2,2,5,7,6,6,11,6,3,2020-10-18 23:19:44.876
0,6,11,2,5,8,8,6,6,11,4,1,6,2020-10-18 23:19:44.882
1,11,8,1,6,8,2,9,5,4,8,8,1,4,2020-10-18 23:19:44.888
1,13,6,1,8,7,6,9,2,7,4,7,2,1,6,2020-10-18 23:19:44.893
0,8,13,4,2,8,7,8,12,2,7,8,2,6,2020-10-18 23:19:44.898
0,6,13,2,2,2,8,4,6,4,17,8,4,3,6,2020-10-18 23:19:44.904
0,8,11,2,6,8,4,5,6,18,2,8,4,6,2020-10-18 23:19:44.909
0,8,10,3,4,4,2,6,2,17,8,8,5,2020-10-18 23:19:44.915
1,8,2,3,2,5,2,5,6,15,4,11,8,4,4,2020-10-18 23:19:44.921
1,2,6,4,3,6,2,5,13,15,6,3,8,2020-10-18 23:19:44.926
1,4,4,6,2,8,7,2,4,4,10,6,19,4,3,2,2020-10-18 23:19:44.932
1,4,3,8,2,6,6,8,3,4,9,4,23,2,2,8,2020-10-18 23:19:44.938
1,2,3,4,2,6,8,2,4,8,6,22,2,2,2020-10-18 23:19:44.944
1,2,2,8,3,7,8,2,6,6,6,16,4,1,8,2020-10-18 23:19:44.949
1,2,2,2,3,4,7,6,2,8,4,6,10,6,1,6,2020-10-18 23:19:44.955
1,1,6,3,2,5,6,2,8,4,6,2,1,8,2020-10-18 23:19:44.960
1,2,2,3,4,5,8,2,8,7,4,5,6,1,8,2020-10-18 23:19:44.966
1,2,2,4,3,4,4,4,2,8,10,4,9,8,2,2,2020-10-18 23:19:44.972
1,4,2,6,3,4,3,2,8,13,4,14,2,6,2020-10-18 23:19:44.977
2,2,2,3,2,1,2,2,6,14,8,17,8,3,4,2020-10-18 23:19:44.984
2,4,2,3,2,1,8,2,2,13,8,19,2,3,2,2020-10-18 23:19:44.989
2,4,1,6,2,6,2,1,6,11,2,17,8,3,2020-10-18 23:19:44.995
2,4,1,2,2,2,2,1,8,6,16,4,2,8,2020-10-18 23:19:45.001
2,0,8,1,4,2,4,1,2,6,8,12,6,2,2,2020-10-18 23:19:45.006
1,4,2,6,1,2,2,8,1,2,6,8,11,2,2,2020-10-18 23:19:45.012
1,2,4,2,1,4,2,6,1,6,7,8,10,8,2,4,2020-10-18 23:19:45.017
0,8,5,1,4,2,2,2,11,2,12,2,8,2020-10-18 23:19:45.023
0,6,4,8,1,4,2,2,2,10,4,9,2,3,2020-10-18 23:19:45.029
0,8,4,6,1,4,1,8,1,6,8,8,8,8,3,6,2020-10-18 23:19:45.035
1,2,3,2,1,2,4,2,2,6,9,8,8,2,3,4,2020-10-18 23:19:45.042
1,6,1,8,1,6,6,3,6,10,8,7,6,3,2,2020-10-18 23:19:45.047
1,8,1,1,2,8,3,6,7,6,3,8,2,4,2020-10-18 23:19:45.053
1,8,1,2,1,4,9,2,3,8,8,6,4,1,8,2020-10-18 23:19:45.058
1,8,1,4,1,6,9,2,3,8,9,4,5,1,2,2020-10-18 23:19:45.064
1,4,1,2,1,8,6,8,2,6,7,4,4,2,0,6,2020-10-18 23:19:45.070
1,1,2,4,4,1,4,5,4,3,4,0,2020-10-18 23:19:45.075
0,8,1,6,2,5,1,4,2,3,8,0,2020-10-18 23:19:45.087
0,6,2,2,2,5,6,0,6,3,4,2,0,2020-10-18 23:19:45.092
0,4,2,8,2,7,4,0,4,2,3,8,0,2020-10-18 23:19:45.097
0,6,2,8,2,6,9,4,0,2,1,3,0,4,2020-10-18 23:19:45.104
1,6,3,3,2,9,8,0,2,0,2,2,2,2,2,2020-10-18 23:19:45.110
2,8,2,6,3,8,8,4,0,4,0,4,1,8,4,2020-10-18 23:19:45.115
3,2,2,2,4,6,6,0,6,1,1,4,4,8,2020-10-18 23:19:45.121
3,6,1,8,4,2,4,8,0,8,1,6,1,5,6,2020-10-18 23:19:45.126
3,2,1,6,3,4,2,6,1,1,8,1,5,6,2020-10-18 23:19:45.132
2,1,2,2,6,2,1,1,8,1,4,2,2020-10-18 23:19:45.139
0,8,0,8,1,8,1,4,1,1,8,1,2,8,2020-10-18 23:19:45.144
0,6,1,1,4,2,4,0,8,1,6,1,2,2,2,2020-10-18 23:19:45.151
0,4,1,2,1,3,4,0,6,1,4,1,4,1,6,2020-10-18 23:19:45.156
0,6,1,4,0,8,3,2,0,4,1,6,1,4,1,8,2020-10-18 23:19:45.161
1,2,1,6,0,8,3,2,0,6,1,4,1,6,2,2020-10-18 23:19:45.167
1,4,1,8,1,4,6,0,6,1,6,1,8,1,8,2020-10-18 23:19:45.173
1,4,1,4,1,2,4,8,0,8,1,6,1,8,1,8,2020-10-18 23:19:45.177
1,6,1,1,2,3,8,1,2,1,6,2,2,2020-10-18 23:19:45.184
1,6,0,8,1,6,4,8,1,4,1,4,2,1,4,2020-10-18 23:19:45.190
1,2,0,6,1,8,5,6,1,2,1,6,1,8,0,8,2020-10-18 23:19:45.195
1,2,0,4,1,8,5,1,2,1,4,1,6,0,6,2020-10-18 23:19:45.202
1,4,0,8,3,2,3,8,1,4,1,4,1,2,0,4,2020-10-18 23:19:45.207
1,4,1,2,4,8,3,8,1,4,1,4,0,6,0,2020-10-18 23:19:45.212
1,4,2,5,4,4,6,1,4,2,0,6,0,8,2020-10-18 23:19:45.218
1,4,2,8,6,5,4,1,4,2,6,0,6,1,6,2020-10-18 23:19:45.224
1,6,3,4,6,2,4,8,1,4,2,6,0,4,2,2020-10-18 23:19:45.230
1,6,3,4,5,4,8,1,2,2,4,0,4,2,4,2020-10-18 23:19:45.236
1,4,2,8,4,6,2,1,4,2,0,8,2,6,2020-10-18 23:19:45.241
1,4,2,3,8,6,2,1,8,1,2,1,2,2020-10-18 23:19:45.247
1,2,1,4,4,4,5,6,1,6,0,6,1,1,2,2020-10-18 23:19:45.253
0,8,1,5,4,6,4,1,4,0,6,1,2,0,8,2020-10-18 23:19:45.259
0,4,0,6,6,4,7,2,1,2,0,6,1,4,0,4,2020-10-18 23:19:45.265
0,8,1,4,6,6,10,8,2,1,4,1,2,0,2,2020-10-18 23:19:45.271
1,2,2,2,6,8,14,4,2,8,2,2,1,0,2020-10-18 23:19:45.275
2,2,8,6,2,14,3,2,2,1,2,0,6,2020-10-18 23:19:45.281
2,3,4,4,8,14,4,3,2,4,1,0,8,2020-10-18 23:19:45.287
2,4,3,4,14,8,3,2,6,0,8,1,2020-10-18 23:19:45.292
1,4,4,2,6,11,1,6,2,2,0,6,1,2,2020-10-18 23:19:45.298
0,8,3,2,1,8,7,2,0,2,1,8,0,8,1,4,2020-10-18 23:19:45.305
0,2,2,4,0,8,7,0,4,1,6,1,1,2,2020-10-18 23:19:45.309
0,4,1,6,0,6,6,0,8,1,2,1,6,1,4,2020-10-18 23:19:45.315
0,6,0,8,0,4,5,1,2,0,8,2,2,1,6,2020-10-18 23:19:45.321
0,8,0,4,0,8,7,2,1,8,0,4,2,4,1,6,2020-10-18 23:19:45.327
1,0,8,1,2,9,4,2,4,0,2,2,1,6,2020-10-18 23:19:45.332
1,1,2,1,8,12,6,2,6,0,1,8,1,4,2020-10-18 23:19:45.338
1,1,2,2,12,6,2,2,0,1,4,1,2,2020-10-18 23:19:45.343
0,8,1,4,2,6,15,4,2,2,0,2,1,0,8,2020-10-18 23:19:45.350
0,6,1,2,2,6,15,2,0,4,1,0,6,2020-10-18 23:19:45.355
0,4,1,2,6,14,6,1,8,0,6,1,0,4,2020-10-18 23:19:45.361
1,0,6,2,11,1,6,1,0,8,0,8,2020-10-18 23:19:45.367
1,4,2,2,2,4,10,8,2,6,1,2,1,1,2020-10-18 23:19:45.373
2,3,6,2,4,7,8,3,2,1,2,1,2,1,4,2020-10-18 23:19:45.378
2,4,4,8,2,5,3,8,1,4,1,1,6,2020-10-18 23:19:45.385
3,4,8,1,6,2,6,3,6,1,4,0,8,2,4,2020-10-18 23:19:45.390
2,8,5,2,2,6,2,8,3,6,1,2,1,2,2,2020-10-18 23:19:45.396
2,6,4,2,2,2,2,8,3,1,1,4,2,2,2020-10-18 23:19:45.402
2,8,3,6,2,8,4,2,6,1,1,2,2,6,2020-10-18 23:19:45.408
3,2,3,2,3,8,5,2,2,0,8,1,4,3,2,2020-10-18 23:19:45.419
2,8,3,4,3,6,5,8,2,0,6,1,4,2,6,2020-10-18 23:19:45.424
2,4,3,2,3,2,7,2,4,0,6,1,2,2,4,2020-10-18 23:19:45.429
2,2,2,8,3,6,8,2,2,8,0,8,0,8,1,8,2020-10-18 23:19:45.435
1,6,2,3,8,2,3,0,8,0,8,1,2020-10-18 23:19:45.442
1,1,4,2,6,7,2,6,0,8,1,0,4,2020-10-18 23:19:45.447
1,2,1,8,3,4,5,6,2,6,1,1,4,0,6,2020-10-18 23:19:45.453
1,4,2,4,3,8,6,2,2,8,1,2,1,8,0,8,2020-10-18 23:19:45.459
1,6,3,4,2,6,8,3,1,4,2,2,1,2020-10-18 23:19:45.465
1,6,3,4,2,7,2,4,1,6,2,4,1,6,2020-10-18 23:19:45.470
1,6,2,8,4,8,4,2,4,1,8,2,4,2,2020-10-18 23:19:45.476
1,4,2,2,3,8,9,8,2,6,2,2,4,2,2,2020-10-18 23:19:45.482
1,4,1,8,3,2,8,1,6,1,8,2,2,2,2020-10-18 23:19:45.487
1,6,4,6,2,6,6,2,0,8,1,8,1,6,2,4,2020-10-18 23:19:45.493
2,8,2,4,4,8,0,8,1,8,1,4,2,2,2020-10-18 23:19:45.498
3,8,4,2,8,3,6,1,1,8,1,2,2,2020-10-18 23:19:45.505
4,8,8,3,2,2,4,1,2,1,8,1,1,8,2020-10-18 23:19:45.510
5,10,4,3,6,2,6,1,4,1,6,1,6,2,4,2020-10-18 23:19:45.516
5,8,8,8,4,2,8,1,4,1,2,2,2,2,8,2020-10-18 23:19:45.522
5,4,5,2,4,2,6,1,2,0,8,2,2,4,2020-10-18 23:19:45.528
4,8,4,6,3,2,2,6,0,8,0,4,2,2,8,2020-10-18 23:19:45.534
4,2,4,2,4,2,6,0,4,0,2,3,2,2020-10-18 23:19:45.539
3,2,2,2,4,0,4,0,2,1,8,2,6,2020-10-18 23:19:45.545
1,8,1,1,2,2,0,2,0,4,1,1,8,2020-10-18 23:19:45.551
1,8,2,0,8,2,0,2,0,6,1,1,8,2020-10-18 23:19:45.556
1,4,3,0,6,1,6,0,2,0,8,0,8,1,2020-10-18 23:19:45.562
1,6,3,1,2,1,0,4,1,1,2,1,2020-10-18 23:19:45.568
1,6,3,4,1,1,4,0,2,0,8,0,8,1,2020-10-18 23:19:45.573
1,6,2,8,1,2,2,0,2,0,6,1,1,2,2020-10-18 23:19:45.578
1,6,2,2,1,4,2,6,0,2,0,4,1,2,1,4,2020-10-18 23:19:45.585
1,6,1,4,1,8,2,4,0,4,0,4,1,2,1,6,2020-10-18 23:19:45.591
1,1,6,1,4,2,4,0,4,0,4,0,6,1,2020-10-18 23:19:45.596
1,2,1,4,1,2,1,8,0,6,0,8,1,1,4,2020-10-18 23:19:45.603
1,2,1,1,1,4,1,4,1,1,1,4,2020-10-18 23:19:45.608
1,2,0,6,0,8,1,2,2,1,2,1,1,4,2020-10-18 23:19:45.614
1,2,0,4,0,4,1,4,2,8,1,2,1,2,1,4,2020-10-18 23:19:45.621
1,6,0,6,0,2,1,4,2,6,1,2,1,2,1,2,2020-10-18 23:19:45.626
2,1,6,0,4,1,2,2,8,0,8,0,6,1,2,2020-10-18 23:19:45.632
2,6,2,8,0,6,0,8,2,4,0,6,0,4,1,6,2020-10-18 23:19:45.638
3,2,4,0,8,0,4,2,0,4,0,2,2,2020-10-18 23:19:45.644
3,4,2,1,0,2,1,4,0,2,0,4,2,2020-10-18 23:19:45.649
2,4,4,1,0,4,1,6,0,0,8,2,2,2020-10-18 23:19:45.655
1,8,3,6,0,8,0,8,1,2,0,4,1,2,2,2020-10-18 23:19:45.661
1,8,3,8,0,6,1,1,0,4,1,2,2,2020-10-18 23:19:45.668
1,8,4,0,4,1,2,0,8,0,4,1,2,2,2020-10-18 23:19:45.674
2,6,5,2,0,2,1,2,0,8,0,4,0,8,2,4,2020-10-18 23:19:45.679
2,6,5,0,1,2,0,8,0,4,0,6,2,4,2020-10-18 23:19:45.686
2,4,4,6,0,6,3,2,1,4,0,0,2,2,2,2020-10-18 23:19:45.691
1,6,3,6,1,2,5,4,1,8,0,0,2,1,8,2020-10-18 23:19:45.697
0,8,2,6,1,8,7,6,2,2,0,0,2,1,4,2020-10-18 23:19:45.703
0,6,1,6,2,7,4,2,4,0,8,0,8,1,2020-10-18 23:19:45.709
1,2,2,2,2,7,2,2,6,1,6,1,2,1,2020-10-18 23:19:45.713
1,8,2,1,8,4,8,2,4,2,4,1,8,1,2020-10-18 23:19:45.719
1,8,1,6,1,4,3,6,2,2,6,2,1,2020-10-18 23:19:45.726
2,1,8,1,1,6,1,8,2,6,2,2,1,2020-10-18 23:19:45.731
1,6,2,1,2,1,8,1,8,1,8,1,2020-10-18 23:19:45.737
1,6,3,2,1,4,3,4,1,8,1,2,1,4,0,8,2020-10-18 23:19:45.743
1,6,4,4,1,8,4,8,1,8,0,6,1,0,6,2020-10-18 23:19:45.749
2,2,6,2,2,5,2,0,6,1,0,4,2020-10-18 23:19:45.755
2,6,4,2,4,5,4,2,2,1,8,1,2,0,2,2020-10-18 23:19:45.768
1,8,6,3,7,1,8,1,8,1,2,0,2,2020-10-18 23:19:45.773
1,2,4,6,3,2,7,6,1,4,1,6,1,2,0,4,2020-10-18 23:19:45.778
1,2,4,6,3,2,7,1,2,2,6,1,8,0,6,2020-10-18 23:19:45.785
1,2,4,8,3,2,5,6,1,2,2,6,1,6,0,6,2020-10-18 23:19:45.790
1,8,5,6,3,4,4,8,1,1,6,1,2,0,6,2020-10-18 23:19:45.795
2,4,7,2,3,2,2,8,1,4,1,8,1,0,4,2020-10-18 23:19:45.803
2,6,7,8,2,6,1,1,6,4,4,1,4,0,2,2020-10-18 23:19:45.808
3,2,6,6,2,2,0,6,1,8,3,2,0,6,0,4,2020-10-18 23:19:45.814
3,8,5,2,1,8,1,1,8,3,0,6,0,8,2020-10-18 23:19:45.820
4,4,3,8,1,4,1,4,1,8,2,8,0,6,1,2,2020-10-18 23:19:45.825
3,8,3,1,2,2,1,4,3,6,0,8,1,4,2020-10-18 23:19:45.831
3,6,3,2,1,2,8,1,2,2,0,4,1,6,2020-10-18 23:19:45.836
2,4,3,8,1,8,7,4,2,2,2,0,8,1,8,2020-10-18 23:19:45.842
1,2,4,4,2,6,12,2,8,2,4,1,2,2,2020-10-18 23:19:45.848
0,5,3,4,16,6,3,6,2,6,1,6,2,2,2020-10-18 23:19:45.854
0,4,5,2,3,8,15,8,3,8,2,2,2,2,6,2020-10-18 23:19:45.860
0,4,4,6,3,6,15,2,4,2,1,4,2,2,6,2020-10-18 23:19:45.865
1,4,2,3,4,11,3,1,2,1,8,2,4,2020-10-18 23:19:45.871
1,6,3,8,3,2,6,8,1,8,1,1,6,2,2,2020-10-18 23:19:45.876
2,2,3,4,3,2,6,0,6,0,8,1,4,2,2020-10-18 23:19:45.883
1,8,2,8,2,6,3,8,1,1,4,0,8,1,6,2020-10-18 23:19:45.888
2,3,2,3,4,6,0,6,1,8,1,2,1,8,2020-10-18 23:19:45.894
1,6,3,4,2,6,4,8,0,6,2,4,1,6,1,8,2020-10-18 23:19:45.899
1,6,4,3,2,8,4,0,6,3,2,2,2,4,2020-10-18 23:19:45.905
1,4,4,4,2,6,8,1,5,2,2,4,2,6,2020-10-18 23:19:45.911
1,8,4,8,2,6,7,2,0,8,6,3,3,2020-10-18 23:19:45.917
2,5,2,4,6,6,1,2,7,4,3,3,2,2020-10-18 23:19:45.923
2,8,4,6,2,4,6,2,1,6,7,4,3,3,4,2020-10-18 23:19:45.928
2,4,3,6,1,4,3,2,2,6,6,2,6,2,6,2020-10-18 23:19:45.934
2,2,2,8,1,6,4,2,2,4,6,2,2,2,2,2020-10-18 23:19:45.939
2,2,1,8,5,2,2,2,6,1,8,1,8,2020-10-18 23:19:45.945
2,2,2,2,5,8,2,2,0,6,1,2,1,6,2020-10-18 23:19:45.951
1,8,2,6,2,6,2,2,4,0,0,6,1,4,2020-10-18 23:19:45.957
1,8,3,2,1,8,4,8,2,4,0,0,8,1,4,2020-10-18 23:19:45.962
1,8,3,8,1,6,3,4,2,4,0,1,1,4,2020-10-18 23:19:45.968
2,6,5,2,6,7,8,3,2,6,2,2,2,8,2020-10-18 23:19:45.974
3,5,4,3,6,12,6,3,4,5,2,3,6,4,2020-10-18 23:19:45.979
2,4,5,4,3,2,12,6,3,2,5,2,4,4,2,2020-10-18 23:19:45.985
2,2,4,8,3,6,14,4,2,8,5,4,3,6,4,2,2020-10-18 23:19:45.991
2,4,2,4,16,2,2,4,5,6,3,2,4,2,2020-10-18 23:19:45.997
1,3,3,2,12,2,1,4,3,2,1,8,2,8,2020-10-18 23:19:46.003
0,4,2,2,2,2,7,6,0,8,1,4,0,6,1,2,2020-10-18 23:19:46.009
0,8,1,8,2,6,7,8,0,8,2,2,0,4,0,6,2020-10-18 23:19:46.014
1,2,2,2,2,4,7,2,1,2,2,8,0,6,0,4,2020-10-18 23:19:46.021
1,2,2,2,2,6,6,8,1,6,2,8,0,8,0,4,2020-10-18 23:19:46.026
1,6,2,6,2,6,2,1,8,3,2,1,0,4,2020-10-18 23:19:46.031
1,6,2,6,1,6,6,2,1,6,3,1,0,6,2020-10-18 23:19:46.037
1,6,2,6,1,2,6,2,1,4,2,8,1,0,8,2020-10-18 23:19:46.043
1,4,2,8,1,4,5,8,1,2,2,8,1,2,1,2,2020-10-18 23:19:46.048
2,4,3,6,1,2,6,4,1,4,3,4,1,6,2,2020-10-18 23:19:46.055
3,4,1,8,7,2,1,8,3,6,2,2,8,2020-10-18 23:19:46.061
3,3,8,2,2,6,4,1,8,3,6,1,8,2,8,2020-10-18 23:19:46.067
2,6,3,4,2,2,6,2,2,2,3,4,2,6,3,2,2020-10-18 23:19:46.073
2,4,2,8,1,6,6,4,2,6,3,3,2,3,4,2020-10-18 23:19:46.078
2,6,3,1,4,5,2,2,6,2,4,2,8,3,2,2020-10-18 23:19:46.085
2,4,2,4,1,2,3,6,2,2,1,8,2,4,2,2,2020-10-18 23:19:46.090
2,8,2,4,1,2,3,6,2,2,1,4,2,6,2,2020-10-18 23:19:46.096
3,6,3,6,1,6,3,1,6,1,4,1,6,1,6,2020-10-18 23:19:46.102
3,8,4,2,2,2,2,4,1,2,1,0,8,1,2,2020-10-18 23:19:46.113
2,8,3,8,2,4,2,0,8,0,8,0,8,0,6,2020-10-18 23:19:46.119
2,2,4,2,2,6,2,0,8,0,6,0,8,0,8,2020-10-18 23:19:46.125
2,4,2,2,4,1,8,0,8,0,6,0,8,1,2,2020-10-18 23:19:46.130
1,8,3,2,2,2,1,6,1,0,4,1,1,4,2020-10-18 23:19:46.137
1,8,2,6,2,1,2,0,8,0,4,1,1,4,2020-10-18 23:19:46.142
1,8,2,1,8,0,8,0,6,0,4,1,1,4,2020-10-18 23:19:46.147
1,8,2,1,2,0,8,0,8,3,4,1,8,1,2,2020-10-18 23:19:46.153
1,4,2,4,1,1,1,6,2,2,6,0,8,2020-10-18 23:19:46.159
2,4,4,1,2,1,1,6,2,6,0,8,2020-10-18 23:19:46.164
2,4,5,2,1,1,8,1,7,2,3,1,2020-10-18 23:19:46.170
2,8,6,0,8,2,6,1,8,4,3,4,1,2,2020-10-18 23:19:46.176
3,2,6,2,1,3,0,6,6,6,3,1,6,2020-10-18 23:19:46.182
3,6,6,4,1,2,3,4,0,2,4,8,2,6,2,2020-10-18 23:19:46.188
3,5,1,4,0,6,3,2,2020-10-18 23:19:46.194
3,4,4,1,6,3,2,0,6,5,4,3,2,2,2020-10-18 23:19:46.199
2,8,3,8,2,2,8,1,5,2,2,8,1,6,2020-10-18 23:19:46.205
2,4,3,2,2,2,2,2,1,4,4,6,2,2,1,2,2020-10-18 23:19:46.211
2,2,6,2,4,1,6,1,8,4,1,6,0,8,2020-10-18 23:19:46.217
1,6,2,2,6,1,2,2,3,4,1,0,4,2020-10-18 23:19:46.223
1,8,2,2,3,3,6,1,6,3,0,8,0,2,2020-10-18 23:19:46.229
1,8,2,6,2,6,3,2,1,6,2,6,0,8,0,6,2020-10-18 23:19:46.235
2,3,2,4,3,1,6,2,6,1,1,2020-10-18 23:19:46.241
2,2,3,4,2,2,2,8,1,6,2,6,1,2,1,4,2020-10-18 23:19:46.246
2,6,3,8,2,2,8,1,2,2,6,1,6,1,4,2020-10-18 23:19:46.252
2,4,4,1,0,4,1,2,3,1,4,1,2,2020-10-18 23:19:46.257
2,2,3,2,1,0,6,0,8,2,6,1,6,1,2,2020-10-18 23:19:46.263
2,2,4,1,0,8,0,4,2,2,1,8,1,2,2020-10-18 23:19:46.269
1,8,2,0,8,1,0,4,3,1,8,1,2020-10-18 23:19:46.274
1,4,1,6,0,6,1,0,8,3,8,1,6,1,2,2020-10-18 23:19:46.280
1,1,4,0,6,1,1,2,3,6,1,6,1,4,2020-10-18 23:19:46.286
1,2,4,1,2,1,4,1,4,4,2,1,4,1,2020-10-18 23:19:46.292
1,3,4,1,8,1,8,1,6,4,8,1,2,0,6,2020-10-18 23:19:46.297
1,4,2,6,2,2,1,4,4,2,1,2,0,4,2020-10-18 23:19:46.303
1,5,3,2,2,6,1,8,3,2,1,4,0,6,2020-10-18 23:19:46.309
1,5,8,3,6,3,2,2,3,2,1,4,0,8,2020-10-18 23:19:46.314
1,6,2,3,4,3,2,8,2,8,1,6,1,2,2020-10-18 23:19:46.321
1,2,5,6,2,6,3,2,3,8,6,5,6,1,4,2020-10-18 23:19:46.327
1,4,6,4,1,8,3,4,6,6,4,6,1,6,2020-10-18 23:19:46.331
1,6,6,8,1,2,2,8,4,8,7,2,6,2,1,4,2020-10-18 23:19:46.337
1,8,7,2,0,6,2,6,5,8,6,4,1,2,2020-10-18 23:19:46.342
1,8,6,2,0,4,2,8,4,8,8,2,6,2,0,8,2020-10-18 23:19:46.348
1,8,6,4,0,8,2,6,4,5,2,2,0,6,2020-10-18 23:19:46.353
1,8,5,2,1,2,2,8,3,4,4,6,1,8,0,4,2020-10-18 23:19:46.359
1,8,4,1,6,3,2,8,4,2,1,4,0,2,2020-10-18 23:19:46.364
1,6,3,1,6,4,4,4,6,1,2,0,2020-10-18 23:19:46.371
2,2,4,1,2,6,4,8,8,4,2,6,0,4,2020-10-18 23:19:46.376
1,8,4,2,1,2,6,9,8,6,3,1,2020-10-18 23:19:46.382
1,4,4,4,1,2,5,6,9,2,13,2,3,4,1,6,2020-10-18 23:19:46.388
1,4,7,2,1,4,6,4,13,6,18,2,5,8,2,6,2020-10-18 23:19:46.393
1,6,9,8,2,6,4,16,2,22,4,8,3,6,2020-10-18 23:19:46.399
1,2,10,6,2,4,8,8,17,6,26,2,9,6,3,8,2020-10-18 23:19:46.404
1,6,12,2,4,14,2,23,8,24,6,12,2,3,8,2020-10-18 23:19:46.410
4,4,15,2,2,6,20,2,31,2,26,17,6,5,4,2020-10-18 23:19:46.415
6,8,15,8,2,6,25,34,4,27,21,6,6,2020-10-18 23:19:46.422
7,13,4,2,8,33,6,38,21,8,20,5,8,2020-10-18 23:19:46.427
8,16,2,8,32,34,4,23,19,4,5,6,2020-10-18 23:19:46.432
10,15,6,5,8,42,40,2,21,4,17,4,6,2,2020-10-18 23:19:46.439
8,6,15,8,7,2,39,2,35,8,20,2,12,4,4,8,2020-10-18 23:19:46.445
7,2,16,8,6,36,4,31,4,19,7,4,3,4,2020-10-18 23:19:46.452
8,19,2,9,8,29,8,26,6,24,6,8,4,2020-10-18 23:19:46.463
8,18,6,11,4,29,2,27,24,6,5,2,4,4,2020-10-18 23:19:46.469
9,4,17,6,9,8,19,2,17,4,31,15,2,5,8,2020-10-18 23:19:46.474
11,8,14,2,9,6,21,4,16,8,34,25,4,7,6,2020-10-18 23:19:46.480
14,2,10,8,9,4,23,6,16,2,37,35,6,9,4,2020-10-18 23:19:46.486
13,2,8,2,10,2,22,6,13,4,38,36,2,8,8,2020-10-18 23:19:46.492
13,9,8,11,2,27,8,10,4,39,2,42,8,8,2020-10-18 23:19:46.497
10,4,14,8,12,4,30,8,8,37,4,37,6,7,2020-10-18 23:19:46.504
8,20,2,11,32,2,7,44,4,44,6,8,2020-10-18 23:19:46.509
7,6,30,14,4,35,4,6,42,8,35,4,6,8,2020-10-18 23:19:46.515
10,6,39,16,8,41,4,4,43,2,35,8,8,2020-10-18 23:19:46.521
10,2,37,8,17,33,4,8,6,39,35,8,2,2020-10-18 23:19:46.527
10,6,37,18,35,11,4,38,8,42,2,11,6,2020-10-18 23:19:46.532
10,8,35,8,21,6,38,2,12,8,29,8,38,12,2,2020-10-18 23:19:46.538
9,30,2,20,4,40,15,6,29,4,50,15,2020-10-18 23:19:46.544
8,2,27,8,16,37,21,8,44,8,59,8,18,2,2020-10-18 23:19:46.550
12,4,23,4,16,2,37,6,20,42,2,54,18,6,2020-10-18 23:19:46.555
15,8,18,6,15,6,29,19,6,35,6,40,2,15,8,2020-10-18 23:19:46.561
19,2,13,8,15,20,4,19,2,29,26,4,13,2020-10-18 23:19:46.566
19,6,10,4,12,8,13,8,21,4,35,4,33,8,11,4,2020-10-18 23:19:46.573
19,3,8,13,8,12,20,2,26,43,4,9,4,2020-10-18 23:19:46.578
15,9,6,11,6,17,19,6,27,6,52,8,8,2020-10-18 23:19:46.584
11,15,4,9,4,22,19,29,2,62,2,6,6,2020-10-18 23:19:46.590
7,21,2,7,2,27,18,4,30,8,71,6,5,2,2020-10-18 23:19:46.595
6,8,23,4,8,2,30,4,15,2,38,58,2,8,2020-10-18 23:19:46.602
8,2,29,2,8,6,27,10,2,29,38,8,1,4,2020-10-18 23:19:46.608
10,6,30,6,9,6,20,6,8,4,31,4,31,4,2,6,2020-10-18 23:19:46.613
12,6,31,2,9,6,17,7,38,2,25,4,5,2,2020-10-18 23:19:46.619
14,6,31,8,9,6,13,4,5,6,45,19,4,7,8,2020-10-18 23:19:46.625
15,2,29,6,10,7,8,3,6,25,4,17,6,9,4,2020-10-18 23:19:46.630
12,4,22,6,8,4,10,2,4,8,24,15,6,8,6,2020-10-18 23:19:46.636
9,6,15,6,6,8,12,6,6,22,6,13,6,7,8,2020-10-18 23:19:46.642
9,10,7,10,5,2,16,10,2,7,2020-10-18 23:19:46.647
7,2,5,6,4,7,8,9,4,11,2,6,6,5,2,2020-10-18 23:19:46.653
6,5,3,8,7,2,14,2,14,2,0,6,4,2,2020-10-18 23:19:46.659
6,6,6,2,3,8,5,4,17,6,15,2,0,4,4,6,2020-10-18 23:19:46.664
6,4,6,8,4,2,4,2,23,17,8,4,8,4,2,2020-10-18 23:19:46.671
5,4,7,4,4,4,2,24,2,18,6,7,4,3,2020-10-18 23:19:46.676
5,6,7,4,4,6,3,8,20,4,17,6,10,2,2,8,2020-10-18 23:19:46.682
5,8,7,4,5,2,3,4,16,6,16,6,13,2,6,2020-10-18 23:19:46.688
9,10,8,5,6,3,2,11,4,15,8,14,6,4,2,2020-10-18 23:19:46.694
13,14,8,5,6,2,4,4,2,13,4,11,6,6,6,2020-10-18 23:19:46.699
13,6,15,6,6,4,2,3,13,8,13,2,8,2020-10-18 23:19:46.705
14,2,16,4,6,4,6,1,8,14,2,14,8,9,4,2020-10-18 23:19:46.710
15,2,15,8,5,2,6,2,1,14,13,8,9,8,2020-10-18 23:19:46.716
13,2,11,8,4,2,6,2,1,6,13,6,14,8,4,2020-10-18 23:19:46.722
9,4,9,4,4,4,7,2,2,2,13,2,13,8,6,4,2020-10-18 23:19:46.727
8,9,6,4,6,6,2,6,12,6,10,8,4,8,2020-10-18 23:19:46.732
8,6,9,3,2,4,4,2,4,11,2,6,8,4,8,2020-10-18 23:19:46.737
8,8,9,8,4,3,8,1,8,10,4,5,4,5,8,2020-10-18 23:19:46.744
6,8,9,5,2,3,6,2,6,8,4,2,5,2020-10-18 23:19:46.749
6,6,6,6,5,2,2,4,3,4,5,6,3,4,4,8,2020-10-18 23:19:46.755
6,4,4,2,5,2,1,2,4,2,3,2,2,6,4,6,2020-10-18 23:19:46.762
6,4,3,2,4,8,2,6,2,3,8,3,8,5,4,2020-10-18 23:19:46.769
4,6,1,6,4,2,7,4,2,5,2,3,6,2020-10-18 23:19:46.774
5,1,6,2,8,1,6,6,4,6,2,6,4,3,6,2020-10-18 23:19:46.779
5,4,1,6,1,6,1,2,5,8,8,2,7,6,3,6,2020-10-18 23:19:46.786
6,1,8,0,6,1,4,4,6,9,6,7,8,5,2020-10-18 23:19:46.792
5,1,4,0,2,0,8,3,8,6,7,4,2,6,2020-10-18 23:19:46.797
5,2,1,8,1,2,2,4,7,2,6,6,3,2020-10-18 23:19:46.803
4,6,1,8,1,6,2,2,1,8,5,6,5,6,3,2,2020-10-18 23:19:46.809
4,1,8,2,2,2,4,1,2,4,4,6,3,4,2020-10-18 23:19:46.821
3,2,1,8,2,6,2,8,1,4,2,8,4,2,2020-10-18 23:19:46.827
1,8,2,4,3,4,2,6,1,8,2,8,3,8,2,2020-10-18 23:19:46.833
1,2,8,3,4,1,4,2,4,3,4,3,8,1,8,2020-10-18 23:19:46.838
1,3,6,3,6,1,2,3,4,2,4,1,8,2020-10-18 23:19:46.844
1,4,5,3,4,1,4,3,4,4,3,4,1,4,2020-10-18 23:19:46.850
1,6,6,3,2,0,8,3,4,2,3,4,1,4,2020-10-18 23:19:46.856
1,8,6,4,2,8,1,2,2,2,3,4,2,6,1,2,2020-10-18 23:19:46.862
2,6,8,2,4,1,6,1,4,2,6,1,8,1,2020-10-18 23:19:46.869
4,4,6,8,2,6,3,0,6,2,1,2,1,8,2020-10-18 23:19:46.874
6,4,6,2,3,2,4,0,2,4,1,4,3,2020-10-18 23:19:46.880
7,5,2,3,4,6,0,2,4,1,2,3,8,2020-10-18 23:19:46.886
7,6,4,2,2,8,5,2,0,2,4,1,4,6,2020-10-18 23:19:46.892
8,2,4,2,4,4,8,0,2,2,1,8,4,6,2020-10-18 23:19:46.896
6,6,4,2,1,4,3,4,0,4,1,4,2,4,3,6,2020-10-18 23:19:46.903
5,4,4,0,4,2,0,6,0,8,3,2,6,2020-10-18 23:19:46.909
5,4,4,8,0,4,1,2,0,6,0,6,3,6,2,2020-10-18 23:19:46.914
6,2,4,8,0,4,0,2,0,8,0,2,4,2,2,6,2020-10-18 23:19:46.920
7,4,0,6,0,2,0,8,0,2,3,8,4,2020-10-18 23:19:46.926
7,6,3,0,6,0,4,0,6,0,6,3,8,5,4,2020-10-18 23:19:46.932
8,2,2,0,6,0,6,0,4,1,3,8,6,8,2020-10-18 23:19:46.938
10,6,4,2,1,6,1,0,8,1,4,4,2,8,2,2020-10-18 23:19:46.943
12,6,6,8,2,6,1,6,1,2,4,6,8,4,2020-10-18 23:19:46.950
14,6,9,4,3,6,2,2,1,2,2,6,5,8,6,2020-10-18 23:19:46.955
16,8,12,2,4,8,2,6,1,6,2,8,5,8,8,2020-10-18 23:19:46.962
15,4,13,2,5,2,8,1,8,2,6,4,2,7,4,2020-10-18 23:19:46.967
14,12,6,4,6,2,8,1,4,2,3,2,7,2,2020-10-18 23:19:46.973
10,8,11,3,4,2,2,1,2,1,6,3,2,5,8,2020-10-18 23:19:46.978
7,6,9,4,2,2,1,6,1,1,2,3,2,4,4,2020-10-18 23:19:46.985
5,7,2,1,8,1,1,1,6,4,4,4,2020-10-18 23:19:46.990
6,4,8,4,1,6,1,0,8,1,8,4,8,6,2020-10-18 23:19:46.995
5,6,8,4,0,8,0,8,0,8,2,2,5,4,6,6,2020-10-18 23:19:47.002
8,8,9,2,2,8,1,6,1,6,3,2,5,8,8,2020-10-18 23:19:47.007
12,10,4,8,2,4,2,4,4,2,6,2,9,4,2020-10-18 23:19:47.013
14,6,11,4,6,3,2,3,4,4,5,4,9,8,2020-10-18 23:19:47.019
16,8,11,2,8,3,6,4,5,2,6,2,9,4,2020-10-18 23:19:47.024
16,8,10,8,4,3,6,4,4,5,6,6,8,8,8,2020-10-18 23:19:47.030
14,6,9,6,8,3,2,3,8,5,2,6,6,8,6,2020-10-18 23:19:47.036
10,8,7,4,5,2,2,6,3,4,2,6,2,6,8,2020-10-18 23:19:47.042
7,5,8,3,6,2,2,2,3,2,5,8,5,2020-10-18 23:19:47.047
8,2,6,8,4,2,6,2,2,2,8,7,2,10,2,2020-10-18 23:19:47.054
11,6,8,8,6,3,6,2,8,2,8,8,8,15,6,2020-10-18 23:19:47.059
12,2,7,6,8,2,3,6,2,6,2,2,8,8,17,8,2020-10-18 23:19:47.065
14,4,7,10,4,3,8,2,6,2,2,9,21,6,2020-10-18 23:19:47.071
15,2,6,8,12,8,4,6,7,6,6,8,14,2,24,4,2020-10-18 23:19:47.077
11,4,13,2,4,2,11,8,10,8,17,6,20,2,2020-10-18 23:19:47.082
6,6,1,4,11,2,3,12,10,6,15,4,14,2,2020-10-18 23:19:47.088
6,4,3,10,4,3,8,13,4,11,4,15,4,13,4,2020-10-18 23:19:47.094
6,2,4,6,9,6,4,6,14,8,12,2,15,4,12,6,2020-10-18 23:19:47.099
7,4,5,8,8,6,4,8,11,2,8,4,10,4,12,8,2020-10-18 23:19:47.105
8,6,7,7,6,5,7,6,4,6,5,4,13,2020-10-18 23:19:47.110
10,8,9,6,8,5,6,15,2020-10-18 23:19:47.116
9,6,9,4,14,2,8,8,4,5,10,2,14,2020-10-18 23:19:47.122
9,2,10,8,19,4,10,8,8,5,14,4,13,2020-10-18 23:19:47.127
9,14,25,8,9,6,7,8,4,4,14,11,6,2020-10-18 23:19:47.132
7,2,16,2,37,8,10,7,8,3,6,14,6,9,2020-10-18 23:19:47.139
5,4,18,4,49,8,10,4,7,8,2,8,15,2,6,4,2020-10-18 23:19:47.145
4,19,2,56,6,8,8,7,4,2,11,6,4,8,2020-10-18 23:19:47.151
3,20,53,2,6,6,6,6,1,2,8,5,6,2020-10-18 23:19:47.156
1,4,16,8,47,6,8,7,8,1,8,7,6,6,2020-10-18 23:19:47.163
1,8,14,8,41,2,5,4,8,2,4,7,6,8,8,2020-10-18 23:19:47.169
2,2,12,8,35,4,4,8,2,3,7,6,11,6,2020-10-18 23:19:47.175
5,21,39,8,10,9,4,6,6,4,13,2020-10-18 23:19:47.187
6,4,21,6,45,4,12,2,8,4,4,8,4,6,10,2,2020-10-18 23:19:47.193
8,2,24,4,52,6,14,4,7,2,4,2,4,2,8,2,2020-10-18 23:19:47.198
9,6,27,53,8,17,4,6,3,8,2,4,5,2020-10-18 23:19:47.204
13,6,31,8,53,8,21,8,5,4,4,2,1,2,2020-10-18 23:19:47.209
12,4,25,4,39,2,14,8,3,3,6,5,6,3,8,2020-10-18 23:19:47.215
12,2,26,6,33,6,12,2,2,4,4,4,10,8,7,4,2020-10-18 23:19:47.222
12,27,8,28,9,6,1,8,5,2,16,11,2020-10-18 23:19:47.228
11,8,29,22,4,7,1,2,6,21,2,14,6,2020-10-18 23:19:47.233
9,24,8,18,8,4,6,0,8,4,8,21,4,15,2,2020-10-18 23:19:47.239
7,2,21,4,25,6,4,2,0,8,5,17,8,13,2,2020-10-18 23:19:47.245
5,4,18,32,4,3,8,0,8,5,2,14,2,11,2,2020-10-18 23:19:47.249
3,6,14,6,39,2,3,4,0,8,5,4,10,6,9,2,2020-10-18 23:19:47.256
1,8,11,2,46,3,0,8,5,6,7,7,2,2020-10-18 23:19:47.262
0,11,52,1,0,7,8,8,2020-10-18 23:19:47.267
3,13,6,45,6,5,2,1,8,7,6,7,8,6,6,2020-10-18 23:19:47.273
6,16,2,39,2,9,4,3,6,8,2,7,6,5,2,2020-10-18 23:19:47.278
6,2,14,35,2,10,6,4,2,7,2,6,8,6,2020-10-18 23:19:47.284
8,6,14,6,40,12,2,5,6,8,6,5,4,2020-10-18 23:19:47.290
9,2,12,8,33,12,4,5,6,5,8,4,8,4,4,2020-10-18 23:19:47.295
6,8,8,4,32,4,8,4,4,4,4,2,3,8,4,8,2020-10-18 23:19:47.302
4,2,5,8,28,8,4,6,2,6,2,8,2,6,5,6,2020-10-18 23:19:47.307
6,8,7,8,24,8,4,2,2,8,3,1,8,6,2020-10-18 23:19:47.313
7,2,7,12,3,4,2,8,2,6,1,7,8,2020-10-18 23:19:47.319
9,4,8,6,11,4,3,2,8,0,6,10,2020-10-18 23:19:47.324
11,6,10,2,10,4,6,3,2,3,0,2,12,2,2020-10-18 23:19:47.330
13,10,12,8,4,8,4,3,2,0,4,12,6,2020-10-18 23:19:47.336
12,10,13,6,4,6,4,3,4,0,8,11,2,2020-10-18 23:19:47.342
11,10,14,4,4,4,4,3,6,1,2,9,8,2020-10-18 23:19:47.347
9,8,8,2,13,2,4,2,3,6,3,6,3,9,6,2020-10-18 23:19:47.354
7,8,7,11,8,5,4,2,4,8,3,4,7,2,2020-10-18 23:19:47.359
6,6,2,9,6,4,6,3,4,4,6,7,2,2020-10-18 23:19:47.365
4,2,5,4,7,4,4,2,2,6,3,2,8,6,7,2,2020-10-18 23:19:47.371
2,8,6,6,12,5,3,4,4,17,8,8,8,2020-10-18 23:19:47.376
1,6,9,6,18,6,5,8,3,8,5,8,25,6,9,2,2020-10-18 23:19:47.382
2,2,9,6,20,5,2,6,6,4,6,28,8,11,2,2020-10-18 23:19:47.387
4,2,12,4,24,8,6,4,7,4,5,2,28,8,11,2020-10-18 23:19:47.393
6,2,15,2,29,6,7,6,8,2,5,8,28,8,10,8,2020-10-18 23:19:47.398
7,8,16,27,6,7,6,7,8,4,4,22,2,9,2020-10-18 23:19:47.406
7,8,14,6,21,6,6,6,6,8,2,8,13,8,6,2,2020-10-18 23:19:47.410
7,8,17,4,24,8,7,4,2,8,11,2,5,2,2020-10-18 23:19:47.416
7,2,17,24,6,7,4,6,2,8,9,2,5,4,2020-10-18 23:19:47.422
6,6,16,6,24,4,7,5,2,2,8,7,2,5,6,2020-10-18 23:19:47.428
6,4,15,2,25,2,6,4,5,3,8,6,4,5,8,2020-10-18 23:19:47.433
7,8,16,30,6,8,5,4,5,7,4,7,2020-10-18 23:19:47.440
6,8,12,6,25,6,5,6,4,4,5,9,2,6,2020-10-18 23:19:47.446
5,8,9,2,21,2,4,4,3,4,5,11,5,2020-10-18 23:19:47.453
7,4,7,6,16,6,4,2,3,2,4,6,10,4,7,8,2020-10-18 23:19:47.458
8,6,7,11,4,6,3,8,3,2,8,6,10,6,2020-10-18 23:19:47.464
7,4,6,6,4,3,8,3,2,2,4,9,9,2,2020-10-18 23:19:47.470
6,8,4,6,7,2,3,6,2,8,2,6,8,8,8,8,2020-10-18 23:19:47.476
6,6,4,6,8,3,4,2,4,2,8,8,6,8,4,2020-10-18 23:19:47.482
4,2,6,14,2,3,8,2,3,10,4,4,6,2020-10-18 23:19:47.488
1,4,4,4,13,6,3,1,3,10,2,1,2020-10-18 23:19:47.494
1,4,4,6,12,3,4,1,2,2,4,7,8,1,6,2020-10-18 23:19:47.499
1,4,4,8,10,4,3,8,1,4,1,8,5,4,2,2,2020-10-18 23:19:47.506
2,4,6,8,13,2,4,1,6,1,2,3,6,3,2020-10-18 23:19:47.511
3,5,6,10,8,2,6,1,1,2,2,3,4,2020-10-18 23:19:47.517
2,8,6,8,14,4,2,2,1,2,1,2,2,3,2,2020-10-18 23:19:47.523
2,6,8,18,1,8,1,4,1,2,2,3,2020-10-18 23:19:47.528
2,4,7,8,17,8,1,6,1,6,3,6,7,2,3,2020-10-18 23:19:47.534
1,2,5,8,13,2,1,6,1,8,6,2,11,6,2,8,2020-10-18 23:19:47.540
0,3,8,8,6,1,6,2,8,8,16,2,6,2020-10-18 23:19:47.551
0,2,2,4,7,2,2,9,4,19,4,2,2020-10-18 23:19:47.556
0,4,1,5,4,2,4,2,10,22,5,8,2020-10-18 23:19:47.562
0,6,1,7,6,2,6,2,8,20,7,2,2020-10-18 23:19:47.569
0,8,1,9,8,2,8,2,6,18,8,6,2020-10-18 23:19:47.575
1,1,12,3,2,4,16,10,2020-10-18 23:19:47.580
1,1,9,8,2,4,1,8,3,6,13,6,8,8,2020-10-18 23:19:47.586
1,1,7,6,1,8,1,6,3,2,11,2,7,6,2020-10-18 23:19:47.592
1,6,1,5,2,1,6,1,4,2,6,8,2,6,6,2020-10-18 23:19:47.597
3,2,2,4,1,6,1,2,2,5,6,6,2020-10-18 23:19:47.604
4,8,3,2,8,1,6,1,1,4,3,5,4,2020-10-18 23:19:47.609
5,2,3,6,3,2,2,2,1,2,1,4,2,4,4,8,2020-10-18 23:19:47.615
5,6,4,2,3,6,2,8,1,4,1,4,1,8,4,2,2020-10-18 23:19:47.622
5,4,4,4,2,2,4,1,2,1,6,3,6,3,8,2020-10-18 23:19:47.627
3,4,3,6,3,6,1,8,1,1,8,5,3,2020-10-18 23:19:47.633
2,2,2,6,2,8,1,2,0,8,2,4,7,6,2,8,2020-10-18 23:19:47.639
2,2,2,2,6,0,6,0,4,2,8,10,6,3,8,2020-10-18 23:19:47.644
2,2,2,3,0,2,0,2,4,10,4,3,8,2020-10-18 23:19:47.650
2,2,2,2,2,6,0,6,0,2,2,9,2,3,4,2020-10-18 23:19:47.656
2,2,2,4,2,2,1,0,2,8,3,2020-10-18 23:19:47.662
1,8,2,8,2,1,4,0,1,4,5,6,2,2020-10-18 23:19:47.668
1,6,3,1,8,1,8,0,0,8,3,1,6,2020-10-18 23:19:47.674
1,2,6,0,8,1,8,0,6,1,2,4,2,2,2020-10-18 23:19:47.679
0,8,2,4,0,6,1,6,1,2,1,4,4,6,2,4,2020-10-18 23:19:47.685
0,6,2,0,6,1,2,1,2,1,4,5,2,4,2020-10-18 23:19:47.690
0,8,1,8,2,1,2,1,2,1,2,4,6,3,4,2020-10-18 23:19:47.696
0,8,1,8,3,4,1,2,1,2,1,4,4,3,8,2020-10-18 23:19:47.702
1,2,1,8,5,1,4,0,6,0,6,3,6,4,4,2020-10-18 23:19:47.707
1,8,2,6,7,2,2,0,6,0,2,3,3,8,2020-10-18 23:19:47.713
2,2,2,8,7,2,2,6,1,2,0,2,2,3,8,2020-10-18 23:19:47.719
2,2,2,8,6,2,6,1,8,0,4,1,8,2,8,2020-10-18 23:19:47.724
2,2,2,8,4,8,2,6,2,4,0,6,1,6,1,8,2020-10-18 23:19:47.730
2,2,6,3,8,2,4,2,6,1,2,2,1,6,2020-10-18 23:19:47.736
1,6,1,6,2,4,1,6,2,2,1,4,2,6,2,6,2020-10-18 23:19:47.741
1,4,2,5,2,2,4,3,6,1,8,4,6,3,2020-10-18 23:19:47.747
1,2,2,4,8,3,2,5,2,2,6,6,3,4,2020-10-18 23:19:47.752
1,2,8,10,8,4,6,4,2,6,8,6,3,8,2020-10-18 23:19:47.758
0,8,3,2,11,4,3,8,6,6,2,2,7,6,3,2,2020-10-18 23:19:47.764
0,6,3,2,11,2,3,8,6,6,1,8,7,2,2,2020-10-18 23:19:47.770
0,4,2,6,8,4,2,8,4,8,1,2,5,2,1,6,2020-10-18 23:19:47.776
0,2,2,5,6,1,8,3,0,6,3,4,1,2020-10-18 23:19:47.782
0,8,1,6,4,4,1,2,1,4,0,8,3,4,1,8,2020-10-18 23:19:47.789
1,1,8,5,4,1,6,1,2,0,8,3,8,1,8,2020-10-18 23:19:47.795
1,2,2,6,7,1,8,1,4,1,4,2,2,2,2020-10-18 23:19:47.800
2,8,6,4,14,6,4,4,2,4,2,4,6,3,6,2020-10-18 23:19:47.806
4,4,10,2,22,2,7,3,4,3,5,5,2020-10-18 23:19:47.812
4,6,13,24,6,7,8,4,3,3,4,4,4,2020-10-18 23:19:47.817
5,4,15,4,26,8,8,8,4,8,3,8,3,6,4,8,2020-10-18 23:19:47.824
5,4,15,6,28,2,9,4,4,6,4,4,3,8,4,8,2020-10-18 23:19:47.829
4,12,8,23,6,7,6,3,6,4,2,4,3,8,2020-10-18 23:19:47.835
3,10,16,5,2,2,4,3,2,4,8,2,8,2020-10-18 23:19:47.841
2,6,8,12,4,2,1,4,2,4,5,8,2,4,2020-10-18 23:19:47.846
2,2,6,8,3,2,0,4,1,6,6,8,2,2020-10-18 23:19:47.852
2,6,6,5,2,6,0,2,0,8,7,4,2,2020-10-18 23:19:47.858
3,2,5,8,6,6,2,6,0,2,0,2,8,2,2,2020-10-18 23:19:47.864
2,8,5,7,2,2,2,0,2,0,2,6,4,2,6,2020-10-18 23:19:47.869
4,10,2,18,6,4,6,0,4,1,2,4,8,2,6,2020-10-18 23:19:47.875
5,2,15,4,30,7,0,6,2,2,3,2,2,6,2020-10-18 23:19:47.881
6,4,20,6,41,4,9,4,0,8,3,2,1,6,2,6,2020-10-18 23:19:47.887
6,2,21,38,2,8,6,0,8,3,4,2,2,2,4,2020-10-18 23:19:47.893
7,23,2,42,2,9,8,1,3,4,5,2,2,2,2020-10-18 23:19:47.899
6,2,19,4,35,4,8,2,1,2,4,8,2,2,4,2020-10-18 23:19:47.905
6,2,14,4,25,8,6,6,1,6,1,8,12,8,5,2,2020-10-18 23:19:47.910
6,2,9,4,16,2,5,2,2,1,2,17,4,8,2020-10-18 23:19:47.916
6,2,9,15,2,5,2,2,4,1,2,17,8,4,2020-10-18 23:19:47.927
5,8,7,4,11,4,4,2,6,1,6,15,8,8,6,2020-10-18 23:19:47.932
5,6,4,8,6,3,6,2,6,2,2,15,9,2020-10-18 23:19:47.938
3,4,6,6,9,2,8,2,2,4,12,6,6,8,2020-10-18 23:19:47.944
2,6,5,6,8,6,1,8,1,4,2,8,15,4,8,2,2020-10-18 23:19:47.950
3,5,9,6,1,6,1,2,3,2,21,12,2020-10-18 23:19:47.956
3,4,4,4,10,6,1,4,1,3,6,26,6,15,8,2020-10-18 23:19:47.961
3,4,3,4,10,2,1,6,1,3,2,25,16,2,2020-10-18 23:19:47.967
4,4,4,16,6,3,4,1,4,2,8,25,6,16,2,2020-10-18 23:19:47.973
3,4,6,19,4,4,4,1,6,2,6,19,2,12,2,2020-10-18 23:19:47.978
2,8,7,6,22,2,5,4,1,8,2,4,12,8,8,2,2020-10-18 23:19:47.983
2,2,8,25,5,2,1,8,1,8,8,4,8,4,2020-10-18 23:19:47.990
2,6,7,4,23,5,4,1,6,1,6,10,7,6,2020-10-18 23:19:47.995
2,4,4,8,14,2,4,1,1,4,9,4,7,2,2020-10-18 23:19:48.001
2,6,2,8,9,8,3,6,0,6,0,8,10,6,7,2,2020-10-18 23:19:48.007
2,2,1,8,8,6,2,6,0,6,0,6,10,4,7,8,2020-10-18 23:19:48.012
2,4,3,2,5,6,3,4,1,8,0,4,8,8,5,4,2020-10-18 23:19:48.018
2,4,5,4,7,3,4,3,2,0,4,8,7,2,2020-10-18 23:19:48.025
2,4,7,6,8,4,3,4,4,6,0,4,7,2,9,2020-10-18 23:19:48.031
3,11,2,11,4,2,10,8,3,4,5,6,9,2,2020-10-18 23:19:48.037
4,2,13,8,10,4,5,6,16,6,6,5,4,8,8,2020-10-18 23:19:48.043
3,8,12,4,11,5,2,15,4,6,7,6,7,2020-10-18 23:19:48.049
3,8,11,8,11,8,5,4,16,7,8,9,6,5,2,2020-10-18 23:19:48.055
3,8,11,2,12,6,5,6,16,6,9,6,11,6,3,4,2020-10-18 23:19:48.061
3,2,9,2,12,2,5,12,4,8,4,14,4,3,2,2020-10-18 23:19:48.066
2,4,5,8,11,8,4,6,6,6,15,3,2,2020-10-18 23:19:48.073
2,2,5,4,9,6,3,8,7,6,6,8,14,2,4,2020-10-18 23:19:48.078
1,6,4,2,7,2,3,6,8,5,8,13,6,4,8,2020-10-18 23:19:48.084
1,3,4,8,2,2,6,4,8,13,5,6,2020-10-18 23:19:48.090
0,6,1,6,3,1,2,4,2,3,2,12,2,7,8,2020-10-18 23:19:48.096
0,4,1,6,1,2,0,6,4,2,8,13,6,9,8,2020-10-18 23:19:48.100
0,4,1,4,1,4,1,3,2,2,12,6,8,6,2020-10-18 23:19:48.106
0,4,1,2,1,6,1,4,2,1,6,11,6,7,4,2020-10-18 23:19:48.111
0,8,1,8,3,4,1,6,1,4,1,10,4,6,4,2020-10-18 23:19:48.117
1,2,6,4,6,2,1,8,1,9,4,4,2020-10-18 23:19:48.123
1,6,2,8,4,6,2,6,2,0,8,8,2,2020-10-18 23:19:48.129
2,4,3,5,2,6,2,2,0,6,7,4,2,6,2020-10-18 23:19:48.135
2,6,3,2,4,8,2,8,3,1,4,10,2,8,2020-10-18 23:19:48.142
2,4,2,6,3,3,2,3,4,2,2,12,8,2,8,2020-10-18 23:19:48.147
2,2,1,8,1,4,3,5,8,2,4,12,6,3,2020-10-18 23:19:48.153
1,4,1,8,1,4,2,4,6,2,2,4,11,8,3,2020-10-18 23:19:48.159
0,6,1,8,1,4,1,8,6,6,2,4,11,3,2020-10-18 23:19:48.164
0,4,1,6,1,4,2,6,2,2,2,7,6,3,6,2020-10-18 23:19:48.169
0,4,1,4,2,1,2,5,8,2,4,6,8,4,2020-10-18 23:19:48.175
0,4,1,4,2,4,1,3,4,3,2,9,4,2,2020-10-18 23:19:48.181
0,6,1,2,2,4,1,3,2,4,4,12,2,4,2,2020-10-18 23:19:48.187
1,8,1,4,2,4,1,2,4,2,5,4,12,4,5,6,2020-10-18 23:19:48.193
2,4,2,3,0,4,5,2,5,6,11,4,4,8,2020-10-18 23:19:48.198
2,8,2,6,3,0,6,6,2,5,4,7,8,4,2,2020-10-18 23:19:48.204
3,2,3,2,3,0,8,7,2,5,2,4,2,3,6,2020-10-18 23:19:48.210
3,6,3,3,2,1,4,6,6,4,6,1,3,4,2020-10-18 23:19:48.216
3,2,4,3,4,1,8,4,8,4,2,0,8,1,8,2020-10-18 23:19:48.223
3,6,2,4,3,2,3,8,3,4,3,3,2,2020-10-18 23:19:48.227
4,2,2,4,2,6,2,2,2,8,2,6,5,2,4,6,2020-10-18 23:19:48.234
4,2,2,2,2,2,1,8,2,4,8,6,5,6,2020-10-18 23:19:48.240
3,8,2,8,1,2,1,8,2,4,2,6,11,6,6,2,2020-10-18 23:19:48.245
4,2,4,8,2,3,4,2,6,2,4,11,6,6,2,2020-10-18 23:19:48.252
3,8,4,6,1,8,3,2,4,13,6,2,2020-10-18 23:19:48.257
3,4,4,4,1,6,2,6,1,4,5,6,14,4,6,2,2020-10-18 23:19:48.262
3,8,4,4,1,6,2,4,0,8,6,6,14,6,6,6,2020-10-18 23:19:48.268
4,2,4,4,1,6,2,2,0,2,7,6,14,8,7,2020-10-18 23:19:48.281
4,3,0,0,0,9,18,8,2020-10-18 23:19:48.286
3,2,2,4,0,6,0,6,1,6,7,8,14,6,6,8,2020-10-18 23:19:48.292
3,2,2,1,2,0,8,3,6,6,12,4,5,4,2020-10-18 23:19:48.297
2,8,2,1,8,1,4,4,5,4,10,2,4,2020-10-18 23:19:48.303
2,6,1,8,2,4,1,2,5,8,4,2,8,2,6,2020-10-18 23:19:48.310
2,4,1,6,3,1,4,7,2,3,5,8,1,2,2020-10-18 23:19:48.315
2,8,1,8,2,8,1,6,2,8,7,8,1,8,2020-10-18 23:19:48.321
2,6,1,6,2,6,1,5,2,6,8,6,2,6,2020-10-18 23:19:48.327
2,2,1,8,2,4,1,5,6,2,4,8,6,2,4,2020-10-18 23:19:48.332
2,2,1,8,1,2,5,6,2,6,10,8,2,4,2020-10-18 23:19:48.339
1,8,2,2,1,2,1,4,5,6,2,8,13,2,4,2020-10-18 23:19:48.345
1,4,2,4,0,8,1,6,5,8,2,8,11,4,1,4,2020-10-18 23:19:48.350
1,6,2,8,0,8,1,8,6,2,2,6,9,6,0,6,2020-10-18 23:19:48.357
2,2,8,0,8,2,5,2,4,8,6,0,8,2020-10-18 23:19:48.362
2,2,2,8,1,2,2,4,4,1,8,5,4,0,8,2020-10-18 23:19:48.367
1,8,2,8,1,6,2,3,6,1,6,5,6,1,4,2020-10-18 23:19:48.374
1,8,2,8,2,1,8,4,1,4,8,4,2,6,2020-10-18 23:19:48.379
1,2,2,6,2,1,6,4,2,1,4,11,4,3,6,2020-10-18 23:19:48.384
0,6,2,4,2,1,4,4,4,1,4,14,4,4,6,2020-10-18 23:19:48.390
0,2,2,1,6,2,3,8,1,4,15,8,4,6,2020-10-18 23:19:48.396
0,4,2,2,1,6,2,6,5,2,1,4,14,4,5,2,2020-10-18 23:19:48.400
0,6,2,6,1,6,3,4,6,2,1,8,13,4,5,4,2020-10-18 23:19:48.407
0,8,3,1,6,4,2,7,2,2,2,12,4,5,6,2020-10-18 23:19:48.413
1,3,4,1,6,5,8,2,2,6,11,4,5,8,2020-10-18 23:19:48.418
1,4,4,2,4,2,8,2,3,2,10,8,6,2020-10-18 23:19:48.424
1,6,3,6,1,8,3,8,7,2,14,9,8,4,6,2020-10-18 23:19:48.430
1,4,3,2,1,4,2,8,5,6,14,8,7,4,4,2020-10-18 23:19:48.436
1,2,2,8,1,1,8,4,15,6,5,3,4,2020-10-18 23:19:48.443
1,2,4,0,6,0,8,2,4,16,4,2,6,2,8,2020-10-18 23:19:48.449
1,2,2,2,0,8,0,8,2,6,15,8,5,2,3,6,2020-10-18 23:19:48.456
1,2,2,2,0,6,0,2,3,2,5,2,4,6,3,6,2020-10-18 23:19:48.462
1,6,2,2,0,6,0,2,4,4,4,6,5,4,2,8,2020-10-18 23:19:48.467
2,2,2,0,6,0,2,5,6,4,6,2,2,2020-10-18 23:19:48.474
2,2,0,6,2,5,4,3,8,6,8,1,8,2020-10-18 23:19:48.479
1,2,1,6,0,3,6,5,2,4,8,3,6,1,2,2020-10-18 23:19:48.485
0,8,1,2,0,4,8,4,8,6,8,4,8,1,8,2020-10-18 23:19:48.490
0,8,1,0,2,5,4,3,6,7,5,6,2,2020-10-18 23:19:48.496
0,8,0,8,0,4,6,2,4,7,2,6,4,2,2,2020-10-18 23:19:48.502
1,2,0,8,0,6,4,8,2,6,7,7,4,1,8,2020-10-18 23:19:48.508
1,6,0,8,0,6,4,6,3,2,8,6,7,8,3,2,2020-10-18 23:19:48.514
1,8,0,8,0,8,3,4,2,6,7,2,6,2,6,2020-10-18 23:19:48.520
1,6,0,6,0,8,2,8,2,8,7,6,4,6,2,4,2020-10-18 23:19:48.525
1,4,0,4,0,8,2,2,3,8,3,2,2,2,2020-10-18 23:19:48.531
2,0,4,0,6,2,4,3,2,7,4,3,4,2,6,2020-10-18 23:19:48.537
2,6,0,4,0,6,1,6,3,5,4,2,1,2,2020-10-18 23:19:48.543
3,4,0,6,0,4,2,4,3,4,5,8,1,8,2020-10-18 23:19:48.548
4,1,0,4,2,6,3,6,3,4,6,8,2,4,2020-10-18 23:19:48.555
4,6,1,4,0,4,2,8,4,2,2,8,7,8,3,2020-10-18 23:19:48.561
4,4,1,6,0,6,2,2,4,8,3,2,7,2,3,2020-10-18 23:19:48.566
4,2,1,8,0,8,1,6,4,2,4,2,5,4,3,6,2020-10-18 23:19:48.573
3,4,1,8,0,8,2,4,5,4,5,5,6,3,8,2020-10-18 23:19:48.579
2,8,1,6,0,6,3,8,6,5,4,6,4,4,2020-10-18 23:19:48.584
2,2,1,4,0,4,5,2,6,6,5,8,7,2,4,2,2020-10-18 23:19:48.591
2,4,1,2,0,2,5,8,5,6,9,8,14,2,5,8,2020-10-18 23:19:48.596
2,6,1,0,6,4,5,8,13,2,22,4,6,8,2020-10-18 23:19:48.603
3,4,1,0,5,6,4,2,16,8,28,6,8,2,2020-10-18 23:19:48.608
4,2,1,0,4,8,2,6,20,4,34,8,9,6,2020-10-18 23:19:48.614
4,2,0,8,0,2,3,6,2,2,26,4,33,4,9,2,2020-10-18 23:19:48.620
3,4,0,6,0,4,3,2,3,4,28,8,25,8,7,4,2020-10-18 23:19:48.626
3,1,0,8,3,6,4,27,8,21,6,2,2020-10-18 23:19:48.632
2,6,1,4,1,2,2,8,9,4,26,8,16,2,5,2020-10-18 23:19:48.638
2,2,4,2,6,2,8,9,8,22,2,9,8,3,4,2020-10-18 23:19:48.643
2,2,3,6,3,8,3,2,9,15,2,11,3,6,2020-10-18 23:19:48.649
2,6,4,6,4,6,3,4,8,8,12,4,16,8,4,2,2020-10-18 23:19:48.655
2,6,5,5,2,3,4,6,8,13,19,8,4,2,2020-10-18 23:19:48.661
2,2,5,6,2,3,4,6,11,8,18,2,3,2,2020-10-18 23:19:48.666
2,8,4,8,6,2,2,8,5,2,12,8,17,4,4,8,2020-10-18 23:19:48.678
3,4,4,6,6,2,2,6,5,8,13,8,16,6,6,4,2020-10-18 23:19:48.683
3,8,4,6,6,6,2,6,5,8,10,6,11,2,7,6,2020-10-18 23:19:48.690
3,8,4,5,8,2,6,4,8,8,8,5,4,7,4,2020-10-18 23:19:48.695
3,8,3,6,4,6,3,5,4,7,4,5,2,9,2020-10-18 23:19:48.701
3,2,8,3,4,3,5,8,7,4,5,8,8,4,2020-10-18 23:19:48.708
2,2,2,2,2,3,6,2,7,4,6,4,7,8,2020-10-18 23:19:48.713
2,2,6,2,2,8,5,6,6,2,5,4,6,4,2020-10-18 23:19:48.719
2,2,3,8,3,4,13,6,3,6,4,8,6,4,2020-10-18 23:19:48.725
2,8,4,6,5,2,14,6,6,3,15,6,4,8,2020-10-18 23:19:48.731
3,4,5,4,7,15,7,2,2,4,26,4,3,2,2020-10-18 23:19:48.736
4,4,6,4,7,8,14,6,7,8,7,45,6,3,6,2020-10-18 23:19:48.742
4,8,6,7,4,9,2,9,4,12,8,66,4,4,8,2020-10-18 23:19:48.747
5,2,5,6,7,3,8,11,18,6,87,2,6,2020-10-18 23:19:48.754
4,8,6,2,6,4,2,2,9,6,18,2,80,7,2020-10-18 23:19:48.760
4,5,2,4,8,1,4,8,4,18,4,72,7,6,2020-10-18 23:19:48.765
2,8,4,4,2,2,7,2,13,4,55,6,6,2,2020-10-18 23:19:48.772
3,2,3,8,3,8,4,2,5,8,12,8,39,8,4,8,2020-10-18 23:19:48.777
3,6,3,6,3,4,6,4,4,4,12,2,24,3,4,2020-10-18 23:19:48.783
4,8,3,2,6,8,8,4,4,17,2,23,8,3,2020-10-18 23:19:48.789
6,4,4,2,8,10,4,4,2,21,6,24,4,3,2020-10-18 23:19:48.794
6,6,4,8,2,6,11,6,5,2,23,4,23,8,3,6,2020-10-18 23:19:48.800
5,2,4,6,2,2,11,2,6,4,20,8,22,6,4,2,2020-10-18 23:19:48.806
3,8,4,4,1,8,10,8,7,6,18,2,21,4,4,8,2020-10-18 23:19:48.812
2,4,4,2,1,4,10,4,8,8,15,6,20,2,5,4,2020-10-18 23:19:48.817
1,6,3,4,0,8,8,8,2,11,6,17,8,5,2020-10-18 23:19:48.824
2,2,2,8,0,6,6,6,4,10,2,16,6,4,2020-10-18 23:19:48.830
3,6,2,2,1,6,4,4,5,2,9,2,13,3,4,2020-10-18 23:19:48.835
4,4,2,2,2,4,3,8,9,17,6,3,4,2020-10-18 23:19:48.841
5,2,1,8,2,4,0,4,2,4,8,8,22,2,3,4,2020-10-18 23:19:48.846
5,8,2,8,4,4,1,8,3,8,6,23,4,2020-10-18 23:19:48.852
6,2,3,8,6,4,4,8,8,2,22,5,6,2020-10-18 23:19:48.858
5,8,4,8,6,4,5,8,6,7,4,23,4,6,8,2020-10-18 23:19:48.864
6,5,4,7,4,8,7,4,5,8,16,6,7,4,2020-10-18 23:19:48.870
6,2,6,8,4,10,2,8,8,4,2,9,8,8,2020-10-18 23:19:48.875
5,8,6,4,7,8,14,4,10,4,5,4,7,7,2,2020-10-18 23:19:48.881
5,6,6,8,7,6,17,8,10,8,6,8,6,5,4,2020-10-18 23:19:48.887
5,4,7,2,7,4,21,2,11,2,8,2,5,3,6,2020-10-18 23:19:48.893
4,4,6,6,7,8,24,4,9,4,10,2,5,2,2,2020-10-18 23:19:48.899
3,4,6,8,2,27,6,7,6,12,2,5,4,0,4,2020-10-18 23:19:48.905
2,6,5,7,2,22,8,13,4,18,7,1,2,2020-10-18 23:19:48.911
2,3,4,6,6,20,12,8,18,6,10,6,1,8,2020-10-18 23:19:48.917
1,4,1,8,6,17,2,12,2,19,2,14,2,2,4,2020-10-18 23:19:48.924
1,6,1,2,4,8,14,6,13,8,19,2,16,6,2,8,2020-10-18 23:19:48.929
2,6,1,3,9,4,16,8,33,8,32,6,4,2020-10-18 23:19:48.935
3,6,1,4,3,2,13,26,4,31,8,31,6,4,8,2020-10-18 23:19:48.941
4,4,2,4,3,14,6,42,4,35,28,6,5,8,2020-10-18 23:19:48.947
5,2,3,4,2,8,16,2,58,4,38,2,25,6,6,8,2020-10-18 23:19:48.951
6,4,4,2,6,17,8,74,4,41,4,22,6,7,8,2020-10-18 23:19:48.957
5,4,5,3,19,73,4,32,4,10,6,6,2020-10-18 23:19:48.963
4,8,5,3,16,57,8,34,8,14,5,2,2020-10-18 23:19:48.969
4,4,4,8,2,6,13,2,43,4,29,6,12,8,3,6,2020-10-18 23:19:48.974
5,4,5,6,3,4,12,4,32,6,24,6,14,4,2,2,2020-10-18 23:19:48.981
6,4,6,4,4,2,11,6,21,8,19,6,16,0,8,2020-10-18 23:19:48.986
6,8,5,8,4,2,11,8,21,8,15,2,14,8,2,2,2020-10-18 23:19:48.992
7,2,5,2,4,2,12,21,8,10,8,13,6,3,6,2020-10-18 23:19:48.997
7,6,5,4,4,8,11,4,19,17,2,19,6,4,2,2020-10-18 23:19:49.004
6,6,4,6,4,2,8,8,12,6,23,4,22,8,4,6,2020-10-18 23:19:49.009
5,6,3,8,3,6,6,2,6,2,29,6,26,5,2020-10-18 23:19:49.015
4,8,3,6,4,4,11,6,13,8,28,4,23,3,6,2020-10-18 23:19:49.021
4,3,4,5,2,17,21,4,27,2,20,2,2,2020-10-18 23:19:49.026
3,2,3,4,4,6,17,4,23,8,23,14,2,2020-10-18 23:19:49.032
2,2,2,6,5,6,18,24,2,22,8,9,6,3,2020-10-18 23:19:49.038
3,4,2,4,8,22,34,4,15,8,5,4,3,8,2020-10-18 23:19:49.043
4,8,6,6,3,4,20,35,4,13,2,6,2,5,2020-10-18 23:19:49.049
6,2,8,6,3,15,2,28,13,4,8,4,6,2,2020-10-18 23:19:49.055
7,4,9,8,3,8,16,27,4,13,4,11,6,7,2,2020-10-18 23:19:49.061
8,8,11,8,3,16,6,28,8,9,4,13,2,7,2020-10-18 23:19:49.073
8,9,4,6,6,12,4,19,8,11,8,12,6,5,8,2020-10-18 23:19:49.078
7,2,7,10,2,8,2,10,8,14,2,12,4,6,2020-10-18 23:19:49.083
6,8,5,12,8,6,8,10,2,13,8,10,3,4,2020-10-18 23:19:49.090
6,4,3,15,4,5,4,9,6,13,4,8,2,2,2020-10-18 23:19:49.096
5,5,2,25,6,4,6,9,4,14,2,5,6,2,2020-10-18 23:19:49.102
4,9,4,33,2,5,2,9,8,15,4,5,2,3,2020-10-18 23:19:49.107
3,11,2,31,4,4,9,2,18,12,2,3,8,2020-10-18 23:19:49.113
2,13,28,8,3,6,8,6,20,6,19,2,4,6,2020-10-18 23:19:49.118
0,8,14,4,30,6,3,9,2,19,18,6,4,6,2020-10-18 23:19:49.124
0,6,11,6,24,8,1,8,9,4,16,2,18,4,3,6,2020-10-18 23:19:49.130
0,4,8,8,19,0,6,9,6,13,4,18,2,2,6,2020-10-18 23:19:49.135
1,2,8,6,23,4,1,6,9,2,20,15,4,2,6,2020-10-18 23:19:49.141
2,8,4,27,8,2,6,8,8,26,6,12,6,2,6,2020-10-18 23:19:49.146
3,6,8,8,26,6,3,2,9,4,27,15,8,5,4,2020-10-18 23:19:49.152
4,6,8,2,21,6,4,4,12,28,4,19,4,6,4,2020-10-18 23:19:49.158
5,6,7,6,16,6,5,6,14,6,29,8,23,7,4,2020-10-18 23:19:49.164
5,6,6,8,11,2,6,18,8,20,4,21,8,7,6,2020-10-18 23:19:49.170
5,6,6,5,8,6,4,23,11,20,6,7,8,2020-10-18 23:19:49.175
5,2,4,2,4,6,6,23,6,9,8,21,7,8,2020-10-18 23:19:49.181
5,2,3,8,6,2,7,22,2,25,2,22,6,12,8,2020-10-18 23:19:49.187
5,2,3,4,8,4,7,4,20,8,40,6,24,2,17,8,2020-10-18 23:19:49.193
6,2,3,4,8,6,2,16,2,41,2,21,6,18,6,2020-10-18 23:19:49.198
6,4,3,10,2,6,4,17,8,47,21,23,2,2020-10-18 23:19:49.205
7,3,8,8,6,2,15,2,47,2,23,4,22,4,2020-10-18 23:19:49.211
7,8,4,2,5,6,5,2,12,6,29,8,24,2,18,4,2020-10-18 23:19:49.216
7,4,3,8,3,7,4,23,6,12,6,26,8,23,4,2020-10-18 23:19:49.222
6,3,3,11,2,37,8,10,2,33,6,32,6,2020-10-18 23:19:49.228
5,4,3,2,0,8,10,8,31,8,9,2,30,4,28,8,2020-10-18 23:19:49.233
3,8,2,6,0,8,13,4,32,8,17,39,8,31,2,2020-10-18 23:19:49.239
2,2,2,0,8,16,33,8,24,8,49,2,33,6,2020-10-18 23:19:49.245
1,8,2,2,1,15,4,21,2,32,4,56,8,27,2020-10-18 23:19:49.251
1,4,2,4,1,2,14,8,8,6,40,64,4,20,4,2020-10-18 23:19:49.257
1,2,1,17,10,41,80,23,2020-10-18 23:19:49.262
2,2,2,1,8,13,8,10,4,33,2,66,4,22,4,2020-10-18 23:19:49.268
2,6,2,4,3,4,13,6,12,8,30,2,56,2,20,2020-10-18 23:19:49.273
6,2,6,8,10,8,11,12,2,32,2,46,8,23,4,2020-10-18 23:19:49.279
9,8,11,2,18,2,8,4,11,6,34,2,37,4,26,8,2020-10-18 23:19:49.284
13,4,15,6,25,6,5,8,11,36,2,28,30,2,2020-10-18 23:19:49.290
13,6,16,8,29,4,10,8,6,39,2,33,2,26,2,2020-10-18 23:19:49.295
14,6,17,6,32,4,11,2,4,2,37,4,35,24,2020-10-18 23:19:49.301
12,4,14,4,29,6,14,8,2,8,30,6,36,16,2020-10-18 23:19:49.307
10,2,11,2,26,8,18,4,1,4,23,8,37,8,2020-10-18 23:19:49.313
8,7,6,19,6,19,4,3,8,30,4,46,2,13,8,2020-10-18 23:19:49.318
8,2,8,20,4,19,11,4,33,2,52,8,19,6,2020-10-18 23:19:49.325
8,4,8,4,21,2,18,6,19,36,59,4,25,4,2020-10-18 23:19:49.330
8,6,8,8,22,18,2,26,6,38,8,66,31,2,2020-10-18 23:19:49.336
7,2,7,4,17,6,14,38,45,8,62,2,37,6,2020-10-18 23:19:49.343
5,8,6,4,17,6,12,4,45,6,39,4,50,2,30,2,2020-10-18 23:19:49.348
4,6,5,4,14,2,9,41,4,38,4,44,4,32,2020-10-18 23:19:49.353
5,4,8,23,8,15,2,38,4,37,6,35,31,8,2020-10-18 23:19:49.359
6,2,10,6,33,4,21,4,35,4,36,8,25,6,31,6,2020-10-18 23:19:49.365
8,6,15,48,2,31,4,28,6,31,8,26,6,30,8,2020-10-18 23:19:49.370
9,2,15,8,48,6,32,25,6,36,4,40,2,31,2,2020-10-18 23:19:49.376
10,6,17,6,52,6,33,8,28,6,35,6,34,8,23,8,2020-10-18 23:19:49.382
10,15,8,43,6,26,30,4,34,6,33,18,4,2020-10-18 23:19:49.387
9,4,14,34,6,18,2,32,2,33,6,31,2,13,2020-10-18 23:19:49.393
8,6,9,4,19,8,10,2,35,6,36,2,30,9,2020-10-18 23:19:49.398
9,6,8,4,19,4,11,6,35,2,29,2,16,2,3,8,2020-10-18 23:19:49.405
9,4,5,6,13,6,11,4,36,8,32,8,16,8,5,2,2020-10-18 23:19:49.410
8,3,8,7,8,10,8,35,6,29,6,20,6,2,2020-10-18 23:19:49.416
9,4,2,2,3,8,11,4,32,35,35,2,17,6,2020-10-18 23:19:49.423
8,2,2,4,5,2,9,6,28,2,27,8,36,6,16,4,2020-10-18 23:19:49.428
12,10,2,16,13,8,22,4,23,2,37,6,18,2020-10-18 23:19:49.434
15,8,18,26,8,18,16,6,18,6,38,6,19,6,2020-10-18 23:19:49.441
20,8,24,8,37,6,22,6,13,6,20,8,37,21,6,2020-10-18 23:19:49.454
18,8,25,6,42,8,20,4,15,13,26,4,13,6,2020-10-18 23:19:49.460
19,6,27,4,48,4,20,8,15,14,2,29,16,8,2020-10-18 23:19:49.466
14,6,20,6,37,8,17,2,17,8,16,2,26,8,14,2020-10-18 23:19:49.472
10,2,13,8,34,15,6,18,14,26,8,11,8,2020-10-18 23:19:49.477
5,8,7,30,2,14,18,2,11,8,26,8,9,6,2020-10-18 23:19:49.484
5,6,6,30,2,18,16,4,11,23,8,7,2020-10-18 23:19:49.491
7,7,6,25,18,2,20,4,13,17,3,6,2020-10-18 23:19:49.495
9,2,10,2,26,6,16,4,23,6,11,6,15,4,3,4,2020-10-18 23:19:49.501
10,8,12,8,21,4,12,6,29,4,14,4,11,6,2,6,2020-10-18 23:19:49.507
11,2,13,4,18,4,9,8,28,4,13,4,8,2,3,6,2020-10-18 23:19:49.513
10,2,16,4,14,5,2,27,13,2,6,6,3,4,2020-10-18 23:19:49.519
11,2,20,2,13,6,4,8,20,8,10,2,6,2,3,6,2020-10-18 23:19:49.525
12,2,24,13,2,4,4,14,6,7,2,5,8,3,8,2020-10-18 23:19:49.530
13,2,22,8,15,4,8,8,6,5,4,5,4,4,8,2020-10-18 23:19:49.535
15,24,4,25,2,2,8,7,6,6,4,4,8,3,8,2020-10-18 23:19:49.542
18,2,23,6,36,8,2,6,7,6,6,2,4,4,2020-10-18 23:19:49.548
17,8,19,4,49,6,2,5,4,6,8,2,6,4,6,2020-10-18 23:19:49.553
15,20,6,53,6,6,8,6,4,6,6,2,4,4,6,2020-10-18 23:19:49.559
12,6,19,2,51,2,6,4,6,6,4,6,2,2,5,4,2020-10-18 23:19:49.565
10,6,17,38,2,7,4,8,6,3,6,1,8,6,4,2020-10-18 23:19:49.570
10,2,17,8,33,8,13,8,8,6,2,4,1,6,6,2,2020-10-18 23:19:49.576
9,8,18,6,29,4,20,2,8,6,1,2,1,4,6,2020-10-18 23:19:49.582
10,6,14,2,25,20,6,6,6,0,8,2,2,5,8,2020-10-18 23:19:49.588
11,19,4,33,4,23,4,8,0,8,2,2,4,6,2020-10-18 23:19:49.594
10,8,20,4,37,23,3,2,2,6,2,4,3,2020-10-18 23:19:49.599
10,6,16,6,30,26,8,4,8,3,2,6,3,2020-10-18 23:19:49.606
10,4,12,8,23,30,6,6,4,3,4,2,8,3,2020-10-18 23:19:49.612
8,8,10,4,26,26,8,5,8,4,1,8,3,2020-10-18 23:19:49.617
7,8,11,6,27,4,31,5,6,4,2,2,4,2,4,2020-10-18 23:19:49.624
7,4,17,33,6,37,6,5,2,2,6,2,8,2,2,2020-10-18 23:19:49.629
5,4,24,2,41,8,35,3,6,2,6,3,1,6,2020-10-18 23:19:49.635
3,4,31,4,50,32,4,2,2,6,3,2,1,2020-10-18 23:19:49.641
8,2,32,6,50,2,38,2,8,3,2,5,3,8,2020-10-18 23:19:49.645
12,4,28,2,43,4,38,3,6,4,4,6,6,6,2020-10-18 23:19:49.650
14,4,23,8,37,8,33,6,3,4,4,4,6,4,9,4,2020-10-18 23:19:49.656
19,2,24,6,28,4,28,4,2,5,4,9,2,12,2,2020-10-18 23:19:49.662
24,25,4,19,22,4,5,6,4,12,15,2020-10-18 23:19:49.668
24,6,30,6,16,4,16,8,5,6,2,13,8,15,2020-10-18 23:19:49.674
20,29,4,14,10,6,4,4,5,12,8,12,4,2020-10-18 23:19:49.679
19,28,2,17,8,9,8,4,8,7,15,6,9,6,2020-10-18 23:19:49.685
15,2,21,8,25,4,10,2,4,2,8,16,6,8,2020-10-18 23:19:49.691
11,4,15,4,33,10,6,3,6,9,16,4,4,2020-10-18 23:19:49.696
7,6,9,40,6,11,3,10,16,8,1,2,2020-10-18 23:19:49.702
7,8,14,6,51,6,13,3,8,10,4,16,2,1,2,2020-10-18 23:19:49.708
6,22,4,46,4,11,4,4,2,10,2,15,6,1,2020-10-18 23:19:49.713
4,2,30,2,41,2,9,8,4,6,10,15,0,8,2020-10-18 23:19:49.718
3,2,33,4,34,6,8,4,4,2,8,11,8,1,2020-10-18 23:19:49.725
2,2,36,6,28,7,3,8,6,8,6,1,2,2020-10-18 23:19:49.731
8,4,41,8,23,6,4,3,4,5,4,8,6,1,8,2020-10-18 23:19:49.737
15,40,6,23,6,5,2,8,4,8,4,4,6,2020-10-18 23:19:49.744
21,6,39,4,23,6,6,2,2,2,6,8,2,7,4,2020-10-18 23:19:49.749
27,4,42,8,25,6,8,2,4,3,10,6,9,8,2020-10-18 23:19:49.754
28,6,46,8,22,4,14,4,3,3,10,8,9,6,2020-10-18 23:19:49.761
23,8,43,2,14,22,6,2,8,3,2,11,6,8,8,2020-10-18 23:19:49.767
20,2,37,6,14,29,4,4,2,2,6,9,8,2,2020-10-18 23:19:49.773
16,6,32,14,36,2,5,6,2,6,4,7,6,2020-10-18 23:19:49.779
16,4,36,11,2,36,2,5,8,1,4,4,2,7,8,2020-10-18 23:19:49.785
20,8,39,4,12,4,29,4,5,6,1,2,4,2,10,6,2020-10-18 23:19:49.791
22,8,36,8,13,6,22,6,1,3,6,12,2,2020-10-18 23:19:49.797
23,8,40,4,10,8,14,6,5,4,1,3,4,11,8,2020-10-18 23:19:49.803
24,8,44,8,7,2,4,8,1,3,2,11,4,2020-10-18 23:19:49.808
22,4,38,8,6,6,5,4,1,2,6,10,2,2020-10-18 23:19:49.813
20,26,2,12,6,9,6,1,1,6,9,4,2020-10-18 23:19:49.818
17,4,37,27,6,23,2,6,1,2,1,4,10,2,2020-10-18 23:19:49.824
14,8,47,8,42,6,37,4,6,1,4,1,2,11,2020-10-18 23:19:49.830
10,8,42,8,41,6,40,4,5,6,1,4,1,2,9,8,2020-10-18 23:19:49.836
6,8,37,8,40,6,43,4,5,2,1,4,1,2,8,6,2020-10-18 23:19:49.842
5,41,45,8,42,4,6,2,1,8,1,8,9,2020-10-18 23:19:49.847
5,4,26,2,31,32,4,5,4,2,2,2,4,6,6,2020-10-18 23:19:49.861
5,8,11,4,16,2,22,4,4,6,2,6,3,4,2,2020-10-18 23:19:49.866
7,6,12,4,17,4,23,6,4,2,3,2,3,4,3,8,2020-10-18 23:19:49.872
15,6,34,6,33,23,6,6,4,6,2,4,6,4,2020-10-18 23:19:49.878
21,4,54,4,37,8,24,6,7,2,8,8,5,6,2,2,2020-10-18 23:19:49.884
22,8,62,37,6,24,8,7,8,2,6,6,4,8,2020-10-18 23:19:49.890
21,8,67,4,38,8,21,9,4,8,8,7,6,6,2020-10-18 23:19:49.896
25,4,73,8,40,2,16,4,9,6,8,8,7,8,7,2,2020-10-18 23:19:49.902
22,8,59,27,2,13,7,2,6,4,7,2,7,8,2020-10-18 23:19:49.907
20,2,44,2,14,2,9,6,4,8,4,6,6,8,4,2020-10-18 23:19:49.913
17,4,37,8,21,2,4,6,2,5,2,8,4,6,2020-10-18 23:19:49.918
19,2,44,6,21,2,5,6,3,6,4,6,11,4,8,4,2020-10-18 23:19:49.924
16,4,50,4,21,8,3,2,4,6,15,2,10,8,2020-10-18 23:19:49.930
13,6,56,2,20,8,10,4,2,8,4,6,19,13,2,2020-10-18 23:19:49.935
21,4,62,6,28,9,8,3,4,8,19,4,18,4,2020-10-18 23:19:49.942
34,2,74,2,29,8,10,2,2,4,4,17,2,24,6,2020-10-18 23:19:49.948
37,2,78,38,8,10,2,5,6,21,4,32,8,2020-10-18 23:19:49.953
40,2,81,8,47,8,10,1,8,6,8,25,6,41,2020-10-18 23:19:49.959
42,2,74,51,8,8,6,3,2,7,8,24,8,42,2,2020-10-18 23:19:49.964
33,6,65,6,48,4,10,2,4,8,6,27,4,40,6,2020-10-18 23:19:49.970
31,8,66,8,39,2,15,6,4,8,7,8,28,2,40,8,2020-10-18 23:19:49.976
33,2,58,4,28,6,12,4,5,6,8,21,4,34,2020-10-18 23:19:49.982
34,6,50,18,9,2,5,2,5,8,14,6,27,2,2020-10-18 23:19:49.986
37,53,2,12,4,7,4,3,8,5,12,8,27,4,2020-10-18 23:19:49.992
38,6,47,7,2,7,4,3,8,5,12,4,25,4,2020-10-18 23:19:49.998
33,4,31,2,7,8,3,6,3,8,6,6,13,8,21,6,2020-10-18 23:19:50.004
32,6,21,8,8,2,5,4,5,2,7,4,15,2,19,4,2020-10-18 23:19:50.010
31,8,12,4,8,6,7,2,6,6,8,2,16,6,17,2,2020-10-18 23:19:50.016
39,21,15,8,17,7,8,8,6,19,6,19,2,2020-10-18 23:19:50.023
34,6,35,4,17,8,20,8,6,6,7,6,17,8,20,2020-10-18 23:19:50.028
30,2,49,8,19,8,24,6,5,4,6,6,16,20,8,2020-10-18 23:19:50.033
28,6,56,8,29,6,25,8,6,7,4,17,2,22,2020-10-18 23:19:50.039
36,4,73,2,38,2,25,6,4,4,6,14,4,22,8,2020-10-18 23:19:50.044
36,2,71,6,40,17,4,3,5,10,19,4,2020-10-18 23:19:50.050
48,4,73,6,46,6,13,4,2,6,4,6,9,19,4,2020-10-18 23:19:50.055
55,8,69,8,59,2,16,6,7,7,6,13,6,24,2,2020-10-18 23:19:50.061
60,4,73,4,64,22,4,9,6,8,8,15,2,28,6,2020-10-18 23:19:50.066
57,2,73,4,58,8,28,10,6,9,4,16,26,4,2020-10-18 23:19:50.073
58,6,75,8,51,4,27,2,11,2,9,6,19,31,2020-10-18 23:19:50.079
60,78,2,44,26,4,11,8,9,8,22,35,6,2020-10-18 23:19:50.085
66,2,86,4,30,6,18,4,7,6,6,6,19,4,35,4,2020-10-18 23:19:50.092
64,4,90,2,16,8,19,2,11,4,5,8,18,4,30,2,2020-10-18 23:19:50.097
58,6,92,8,20,17,26,4,5,17,6,29,2,2020-10-18 23:19:50.103
48,2,93,25,4,21,2,41,8,4,6,14,6,21,4,2020-10-18 23:19:50.109
37,8,93,2,30,8,25,4,57,2,4,2,11,6,13,6,2020-10-18 23:19:50.114
23,8,76,8,33,6,34,8,61,8,6,8,14,8,8,2020-10-18 23:19:50.120
