EMG - Pod01,EMG - Pod02,EMG - Pod03,EMG - Pod04,EMG - Pod05,EMG - Pod06,EMG - Pod07,EMG - Pod08,Timestamp
0,0,0,0,0,0,0,0,21/09/2020 6:34:15
-2,-1,0,2,18,-1,-4,0,21/09/2020 6:34:15
-3,-2,-2,-3,5,0,-4,0,21/09/2020 6:34:16
-4,-2,-2,4,13,-29,-8,0,21/09/2020 6:34:16
0,0,-1,4,15,-6,-1,0,21/09/2020 6:34:16
0,-1,-1,-6,-43,7,-5,0,21/09/2020 6:34:16
-2,0,-2,6,13,-7,-7,0,21/09/2020 6:34:16
2,1,0,-3,2,11,5,0,21/09/2020 6:34:16
1,0,0,-3,-5,-2,0,0,21/09/2020 6:34:16
1,0,0,-3,-5,-2,0,0,21/09/2020 6:34:16
3,2,4,5,-11,18,8,0,21/09/2020 6:34:16
1,0,0,3,25,2,3,0,21/09/2020 6:34:16
0,0,2,8,24,7,0,0,21/09/2020 6:34:16
0,2,1,-5,-3,0,5,0,21/09/2020 6:34:16
0,0,1,0,16,-33,-6,0,21/09/2020 6:34:16
-3,-2,-3,-7,-22,-3,2,0,21/09/2020 6:34:16
-3,-4,-4,-4,-30,-3,-9,0,21/09/2020 6:34:16
1,1,0,0,-5,7,6,0,21/09/2020 6:34:16
-1,-2,-3,-2,-11,7,2,0,21/09/2020 6:34:16
1,-1,-1,-5,-39,-3,0,0,21/09/2020 6:34:16
-1,-2,-1,-1,17,-1,-5,0,21/09/2020 6:34:16
-1,-1,0,2,-17,3,-1,0,21/09/2020 6:34:16
2,1,2,6,12,19,4,0,21/09/2020 6:34:16
-1,-2,-2,-4,5,-8,-5,0,21/09/2020 6:34:16
-6,-6,-4,-2,9,1,-6,0,21/09/2020 6:34:16
-6,-6,-4,-2,9,1,-6,0,21/09/2020 6:34:16
-3,-4,-4,-7,-17,-1,-2,0,21/09/2020 6:34:16
-2,-2,-3,-5,-6,-10,-7,0,21/09/2020 6:34:16
0,0,-2,-5,-7,1,4,0,21/09/2020 6:34:16
-3,-3,-4,-12,-54,-32,-7,0,21/09/2020 6:34:16
-3,-2,-4,-4,-7,-8,-8,0,21/09/2020 6:34:16
2,-1,-1,1,1,4,4,0,21/09/2020 6:34:16
-3,-3,-3,-5,-19,3,-6,0,21/09/2020 6:34:16
0,1,1,1,11,6,8,0,21/09/2020 6:34:16
-1,-3,0,-1,-38,-39,-5,0,21/09/2020 6:34:16
-2,-1,-2,-4,5,7,2,0,21/09/2020 6:34:16
2,2,4,8,27,4,4,0,21/09/2020 6:34:16
0,1,-2,-6,0,-1,0,0,21/09/2020 6:34:16
-1,2,1,-6,-5,-9,-4,0,21/09/2020 6:34:16
-3,-3,-3,-3,13,5,-4,0,21/09/2020 6:34:16
0,-1,-1,-4,-14,3,4,0,21/09/2020 6:34:16
-2,-3,-1,-2,3,-2,-4,0,21/09/2020 6:34:16
-1,-2,-3,-4,8,5,0,0,21/09/2020 6:34:16
-1,1,0,2,-12,-2,2,0,21/09/2020 6:34:16
-1,0,-1,-1,2,6,-1,0,21/09/2020 6:34:16
-1,-1,-1,-2,15,-1,0,0,21/09/2020 6:34:16
-3,-3,-1,4,6,8,-2,0,21/09/2020 6:34:16
-4,-1,-1,4,3,-15,-5,0,21/09/2020 6:34:16
-2,-1,-1,1,11,-4,-1,0,21/09/2020 6:34:16
1,1,1,-2,-28,5,3,0,21/09/2020 6:34:16
-1,-1,1,4,40,9,1,0,21/09/2020 6:34:16
-1,-1,0,-3,-7,-6,-6,0,21/09/2020 6:34:16
0,-1,-1,-6,-6,2,0,0,21/09/2020 6:34:16
2,2,1,11,33,8,6,0,21/09/2020 6:34:16
-1,-3,-1,-4,-9,-6,-2,0,21/09/2020 6:34:16
-5,-4,-5,0,-6,18,-3,0,21/09/2020 6:34:16
0,0,0,5,35,26,4,0,21/09/2020 6:34:16
20,0,-1,2,21,-4,-1,0,21/09/2020 6:34:16
-3,-3,-1,2,-2,7,-1,0,21/09/2020 6:34:16
-5,-1,-1,-9,-20,-9,-2,0,21/09/2020 6:34:16
-4,1,0,-1,-22,-9,-2,0,21/09/2020 6:34:16
1,-3,-1,1,1,-2,0,0,21/09/2020 6:34:17
-6,-4,0,0,3,5,-5,0,21/09/2020 6:34:17
4,2,2,-6,-11,-7,0,0,21/09/2020 6:34:17
-14,-2,-1,0,0,4,2,0,21/09/2020 6:34:17
-3,-3,-4,-2,-1,7,3,0,21/09/2020 6:34:17
-2,-3,-10,-11,1,-2,-5,0,21/09/2020 6:34:17
7,-17,-5,-7,-8,-5,-3,0,21/09/2020 6:34:17
-10,7,7,-8,-23,-3,1,0,21/09/2020 6:34:17
-23,-5,3,9,5,9,5,0,21/09/2020 6:34:17
101,-16,-61,-13,0,11,7,0,21/09/2020 6:34:17
52,9,14,-55,-79,-50,-16,0,21/09/2020 6:34:17
-35,-11,-11,-5,-11,-7,2,0,21/09/2020 6:34:17
-9,15,9,-2,33,-2,-5,0,21/09/2020 6:34:17
1,3,-7,-29,-39,-16,-3,0,21/09/2020 6:34:17
-55,-8,-14,-8,-49,-58,-16,0,21/09/2020 6:34:17
6,3,7,11,54,37,0,0,21/09/2020 6:34:17
4,0,4,5,8,16,4,0,21/09/2020 6:34:17
5,0,0,-9,9,21,22,0,21/09/2020 6:34:17
5,0,0,-9,9,21,22,0,21/09/2020 6:34:17
-11,-1,-1,-6,-51,-46,-13,0,21/09/2020 6:34:17
-17,0,-9,-30,-39,12,-7,0,21/09/2020 6:34:17
0,0,0,0,0,0,0,0,21/09/2020 6:34:22
-2,-1,0,-2,-6,-12,-2,0,21/09/2020 6:34:22
-6,-5,-7,-19,-43,-13,-5,0,21/09/2020 6:34:22
2,3,2,10,9,6,2,0,21/09/2020 6:34:23
2,0,4,8,13,13,4,0,21/09/2020 6:34:23
-2,-2,-1,1,7,3,-2,0,21/09/2020 6:34:23
-3,-2,-2,1,8,2,-5,0,21/09/2020 6:34:23
0,-1,-4,-2,-10,-5,-1,0,21/09/2020 6:34:23
-2,-2,-3,1,-27,-39,-5,0,21/09/2020 6:34:23
2,3,2,6,15,11,5,0,21/09/2020 6:34:23
-6,-4,-7,-18,-33,-17,-9,0,21/09/2020 6:34:23
-4,-4,-7,-25,-39,-14,-9,0,21/09/2020 6:34:23
2,1,2,16,37,14,4,0,21/09/2020 6:34:23
-2,-2,-2,-3,-1,-7,-5,0,21/09/2020 6:34:23
-2,1,0,3,-5,10,2,0,21/09/2020 6:34:23
2,1,4,15,63,23,5,0,21/09/2020 6:34:23
2,3,-1,0,13,8,5,0,21/09/2020 6:34:23
0,0,-1,-4,-21,9,8,0,21/09/2020 6:34:23
0,0,4,22,64,56,7,0,21/09/2020 6:34:23
0,-2,-1,1,12,-4,-3,0,21/09/2020 6:34:23
3,4,6,12,47,22,12,0,21/09/2020 6:34:23
0,-1,-2,-4,-3,2,-5,0,21/09/2020 6:34:23
-3,-1,2,4,2,-3,-2,0,21/09/2020 6:34:23
-1,-3,-3,-1,-10,-26,-5,0,21/09/2020 6:34:23
3,1,0,0,-9,-5,0,0,21/09/2020 6:34:23
2,0,-1,2,-9,-1,6,0,21/09/2020 6:34:23
0,-1,-1,-12,-32,-5,0,0,21/09/2020 6:34:23
0,-1,-1,-12,-32,-5,0,0,21/09/2020 6:34:23
-2,1,1,3,2,8,3,0,21/09/2020 6:34:23
-2,-2,-2,-9,-23,-8,-3,0,21/09/2020 6:34:23
-1,-2,-2,-4,8,1,1,0,21/09/2020 6:34:23
0,0,1,1,6,-3,6,0,21/09/2020 6:34:23
-2,-2,-4,-20,-37,-25,-6,0,21/09/2020 6:34:23
-2,-2,-4,-20,-37,-25,-6,0,21/09/2020 6:34:23
-1,0,-2,3,3,-2,-2,0,21/09/2020 6:34:23
1,3,2,10,18,14,2,0,21/09/2020 6:34:23
-3,-5,-6,7,54,10,-6,0,21/09/2020 6:34:23
-2,-2,-7,-3,-26,-10,-5,0,21/09/2020 6:34:23
1,1,2,5,10,0,3,0,21/09/2020 6:34:23
2,3,4,14,38,19,7,0,21/09/2020 6:34:23
-1,1,1,1,9,14,6,0,21/09/2020 6:34:23
3,1,3,9,34,-8,6,0,21/09/2020 6:34:23
-4,-6,-4,-16,-36,-11,-11,0,21/09/2020 6:34:23
1,0,0,1,16,12,3,0,21/09/2020 6:34:23
1,0,0,1,16,12,3,0,21/09/2020 6:34:23
3,3,4,5,0,4,7,0,21/09/2020 6:34:23
0,1,-1,0,8,-14,0,0,21/09/2020 6:34:23
-4,-3,-4,-13,-9,-5,-14,0,21/09/2020 6:34:23
2,1,2,-4,-16,-1,2,0,21/09/2020 6:34:23
-2,-1,-1,-3,-30,-32,-7,0,21/09/2020 6:34:23
-1,0,1,1,7,12,7,0,21/09/2020 6:34:23
0,-2,-5,-13,-20,2,-1,0,21/09/2020 6:34:23
-1,-1,1,2,12,10,-1,0,21/09/2020 6:34:23
2,1,0,1,-1,4,2,0,21/09/2020 6:34:23
-3,-3,-5,-7,-19,-11,-9,0,21/09/2020 6:34:23
-3,-2,-3,-9,11,7,3,0,21/09/2020 6:34:23
-1,-2,0,-1,-26,-9,0,0,21/09/2020 6:34:23
0,1,-1,-1,12,1,4,0,21/09/2020 6:34:23
-2,-2,-4,-8,-2,-12,-5,0,21/09/2020 6:34:23
1,2,2,5,6,10,4,0,21/09/2020 6:34:23
2,3,0,7,30,9,0,0,21/09/2020 6:34:23
4,3,4,7,1,2,4,0,21/09/2020 6:34:23
-1,0,-1,1,11,8,0,0,21/09/2020 6:34:23
-1,0,1,-3,-22,-13,-5,0,21/09/2020 6:34:23
0,0,-2,-3,-2,-1,4,0,21/09/2020 6:34:24
0,-3,-3,-9,-12,-3,-5,0,21/09/2020 6:34:24
1,2,3,-2,-12,10,5,0,21/09/2020 6:34:24
-3,-2,-1,2,5,1,-1,0,21/09/2020 6:34:24
-1,-1,1,-1,-11,22,2,0,21/09/2020 6:34:24
1,-1,1,-4,4,0,-2,0,21/09/2020 6:34:24
0,0,0,0,16,-1,-1,0,21/09/2020 6:34:24
0,1,1,7,10,9,2,0,21/09/2020 6:34:24
-2,0,0,-4,-21,0,0,0,21/09/2020 6:34:24
-2,-2,-2,-6,-28,-5,0,0,21/09/2020 6:34:24
-4,-3,-4,-4,38,8,-3,0,21/09/2020 6:34:24
0,0,0,3,-3,-11,0,0,21/09/2020 6:34:24
-6,-5,-8,-9,-32,-20,-19,0,21/09/2020 6:34:24
0,0,-2,-7,-9,2,0,0,21/09/2020 6:34:24
-4,-2,-1,-12,-4,-5,-5,0,21/09/2020 6:34:24
3,1,2,9,19,16,10,0,21/09/2020 6:34:24
0,0,0,1,-4,-2,0,0,21/09/2020 6:34:24
-2,-2,-4,-2,9,-13,-8,0,21/09/2020 6:34:24
1,-1,1,5,2,0,0,0,21/09/2020 6:34:24
-1,-1,-3,3,29,7,3,0,21/09/2020 6:34:24
0,0,0,-5,-27,4,1,0,21/09/2020 6:34:24
1,0,3,3,-9,5,2,0,21/09/2020 6:34:24
0,-1,1,4,17,-13,-3,0,21/09/2020 6:34:24
-2,-1,-5,-4,-2,11,2,0,21/09/2020 6:34:24
0,-1,0,-5,-16,-31,1,0,21/09/2020 6:34:24
-1,-1,-1,-1,-7,-2,0,0,21/09/2020 6:34:24
0,-1,0,1,11,-3,-3,0,21/09/2020 6:34:24
1,-1,-1,6,16,2,1,0,21/09/2020 6:34:24
-2,-3,-5,-22,-49,-36,-7,0,21/09/2020 6:34:24
-2,-1,2,1,16,11,-2,0,21/09/2020 6:34:24
-1,0,0,7,8,8,7,0,21/09/2020 6:34:24
-3,-4,-6,-1,12,-5,-6,0,21/09/2020 6:34:24
1,1,3,20,58,28,4,0,21/09/2020 6:34:24
2,2,2,2,-5,-24,0,0,21/09/2020 6:34:24
0,3,4,8,24,2,2,0,21/09/2020 6:34:24
0,-1,-1,-1,-2,2,0,0,21/09/2020 6:34:24
0,0,0,1,0,8,0,0,21/09/2020 6:34:24
-1,-1,1,4,7,6,5,0,21/09/2020 6:34:24
-2,-1,0,-5,-20,-9,-8,0,21/09/2020 6:34:24
-1,-2,0,7,17,4,-1,0,21/09/2020 6:34:24
-1,0,0,1,8,-1,0,0,21/09/2020 6:34:25
-2,-2,-3,-6,-18,3,1,0,21/09/2020 6:34:25
2,-1,1,-1,-5,-8,-2,0,21/09/2020 6:34:25
-3,-2,-4,-6,-10,-2,-6,0,21/09/2020 6:34:25
-2,1,0,9,30,2,2,0,21/09/2020 6:34:25
0,0,1,5,-3,5,0,0,21/09/2020 6:34:25
0,-1,-3,-10,-4,4,0,0,21/09/2020 6:34:25
-1,-2,-2,3,-6,-1,0,0,21/09/2020 6:34:25
0,0,-1,-7,-30,-9,0,0,21/09/2020 6:34:25
1,1,1,-1,2,-6,0,0,21/09/2020 6:34:25
0,0,0,5,36,16,0,0,21/09/2020 6:34:25
-1,-1,-1,5,20,6,1,0,21/09/2020 6:34:25
1,0,-1,2,5,7,1,0,21/09/2020 6:34:25
-3,-3,-2,-5,-3,-4,-6,0,21/09/2020 6:34:25
-1,-1,1,-1,-5,-2,-3,0,21/09/2020 6:34:25
-3,-4,-1,9,28,-13,-5,0,21/09/2020 6:34:25
1,-1,-1,5,-4,7,0,0,21/09/2020 6:34:25
1,1,2,2,1,2,5,0,21/09/2020 6:34:25
1,1,2,2,1,2,5,0,21/09/2020 6:34:25
-2,0,-2,-2,-7,-12,-2,0,21/09/2020 6:34:25
-5,0,-2,6,13,-13,-2,0,21/09/2020 6:34:25
-3,-1,-2,-2,-11,-3,-3,0,21/09/2020 6:34:25
-2,-4,-8,-16,-61,-14,-7,0,21/09/2020 6:34:25
-1,1,1,-1,-6,7,-1,0,21/09/2020 6:34:25
-2,0,-4,-7,0,1,-1,0,21/09/2020 6:34:25
-3,-2,-1,3,19,-4,-2,0,21/09/2020 6:34:25
3,0,-2,2,-11,0,5,0,21/09/2020 6:34:25
-3,0,0,-4,-17,4,0,0,21/09/2020 6:34:25
-1,1,0,-7,-17,-8,-1,0,21/09/2020 6:34:25
0,1,1,5,31,8,3,0,21/09/2020 6:34:25
0,-2,-1,-4,-1,4,-2,0,21/09/2020 6:34:25
1,-1,-1,-1,5,-8,-2,0,21/09/2020 6:34:25
0,-2,-3,-2,-17,-3,-1,0,21/09/2020 6:34:25
-2,0,-4,-7,3,-3,-3,0,21/09/2020 6:34:25
-2,-3,-3,-3,-21,-10,-7,0,21/09/2020 6:34:25
-2,-2,0,0,10,5,1,0,21/09/2020 6:34:25
-3,-2,-3,-10,-28,-8,-4,0,21/09/2020 6:34:25
-2,-2,0,4,9,1,-3,0,21/09/2020 6:34:25
0,1,0,1,-7,-12,3,0,21/09/2020 6:34:25
3,2,2,6,46,0,0,0,21/09/2020 6:34:25
1,0,0,1,-1,15,2,0,21/09/2020 6:34:25
-1,-2,-6,-1,24,2,-2,0,21/09/2020 6:34:25
-2,0,0,1,10,-8,-2,0,21/09/2020 6:34:25
-2,-2,-1,-3,-8,-10,-3,0,21/09/2020 6:34:25
1,0,0,-1,1,6,4,0,21/09/2020 6:34:25
-3,-3,-2,-1,27,7,-1,0,21/09/2020 6:34:25
-3,-3,-2,-1,-3,-7,-7,0,21/09/2020 6:34:25
1,1,-3,2,17,14,7,0,21/09/2020 6:34:25
1,2,4,4,5,4,4,0,21/09/2020 6:34:25
-3,-3,-3,-1,10,15,-1,0,21/09/2020 6:34:25
-2,-2,-2,-8,-18,9,-2,0,21/09/2020 6:34:25
0,2,0,1,16,-8,0,0,21/09/2020 6:34:25
2,0,2,4,36,17,1,0,21/09/2020 6:34:25
-1,-1,-1,-5,-16,-5,-4,0,21/09/2020 6:34:25
-1,-1,-2,0,15,-4,0,0,21/09/2020 6:34:25
-1,-1,-2,0,15,-4,0,0,21/09/2020 6:34:25
1,-2,-7,-5,-8,-11,-8,0,21/09/2020 6:34:25
-1,-2,-1,0,5,-6,-1,0,21/09/2020 6:34:25
-1,0,-1,-2,-29,-1,-3,0,21/09/2020 6:34:25
1,0,0,1,-10,3,4,0,21/09/2020 6:34:25
-1,-2,0,-9,-83,-24,-5,0,21/09/2020 6:34:25
0,0,0,1,9,-5,1,0,21/09/2020 6:34:25
-4,-4,-7,-26,-49,-13,-5,0,21/09/2020 6:34:25
-1,-2,1,5,32,24,-1,0,21/09/2020 6:34:26
-1,0,0,4,-1,1,-1,0,21/09/2020 6:34:26
4,2,1,5,31,13,6,0,21/09/2020 6:34:26
-2,0,-2,-1,3,-6,-6,0,21/09/2020 6:34:26
-1,-1,0,5,20,-9,-1,0,21/09/2020 6:34:26
-2,-2,-2,-1,4,8,2,0,21/09/2020 6:34:26
0,-3,-4,2,5,2,-2,0,21/09/2020 6:34:26
1,0,-2,0,13,7,4,0,21/09/2020 6:34:26
-2,-2,-4,-2,15,-10,-8,0,21/09/2020 6:34:26
-1,-2,-3,-5,-32,-20,-5,0,21/09/2020 6:34:26
-2,-2,-3,-9,-40,-10,-4,0,21/09/2020 6:34:26
-3,-2,-2,-4,-11,-17,-2,0,21/09/2020 6:34:26
-2,1,-1,5,21,4,3,0,21/09/2020 6:34:26
0,1,0,1,-15,-6,-1,0,21/09/2020 6:34:26
-3,-3,-3,-8,-3,-4,-1,0,21/09/2020 6:34:26
1,1,2,2,10,13,1,0,21/09/2020 6:34:26
-1,-1,-2,0,14,15,0,0,21/09/2020 6:34:26
-2,0,0,-4,-17,1,-1,0,21/09/2020 6:34:26
0,-1,0,-9,24,32,6,0,21/09/2020 6:34:26
-3,-1,-1,0,23,14,-1,0,21/09/2020 6:34:26
-4,-7,-33,-5,14,13,-6,0,21/09/2020 6:34:26
-2,0,24,7,38,9,-3,0,21/09/2020 6:34:26
0,0,-7,5,-1,-12,9,0,21/09/2020 6:34:26
0,2,-10,-4,-5,13,16,0,21/09/2020 6:34:26
-2,2,13,-5,7,15,2,0,21/09/2020 6:34:26
0,4,4,4,-11,60,-9,0,21/09/2020 6:34:26
2,8,12,7,16,16,9,0,21/09/2020 6:34:26
0,-5,-9,-7,-58,-50,-7,0,21/09/2020 6:34:26
-5,9,14,-15,-19,-32,-15,0,21/09/2020 6:34:26
-4,-27,-76,-34,-88,-49,-6,0,21/09/2020 6:34:26
-4,-27,-76,-34,-88,-49,-6,0,21/09/2020 6:34:26
-7,-22,17,17,62,12,-2,0,21/09/2020 6:34:26
6,6,-85,8,70,4,0,0,21/09/2020 6:34:26
-6,-19,49,20,86,13,7,0,21/09/2020 6:34:26
-17,-27,-49,-40,-7,2,-4,0,21/09/2020 6:34:26
-2,16,50,4,-3,50,1,0,21/09/2020 6:34:26
-7,-8,-5,11,109,14,10,0,21/09/2020 6:34:26
4,-4,-16,11,22,-11,22,0,21/09/2020 6:34:26
1,-17,-44,-9,-18,0,-6,0,21/09/2020 6:34:26
9,7,-8,-20,-78,24,36,0,21/09/2020 6:34:26
5,3,4,15,34,-23,8,0,21/09/2020 6:34:26
1,2,18,-13,-6,-37,7,0,21/09/2020 6:34:26
-8,-12,-34,-34,-75,2,-19,0,21/09/2020 6:34:27
1,11,20,-6,-13,15,9,0,21/09/2020 6:34:27
-2,-3,25,26,58,29,-7,0,21/09/2020 6:34:27
5,-7,-6,-4,7,45,23,0,21/09/2020 6:34:27
-7,-4,31,-27,-97,-82,-29,0,21/09/2020 6:34:27
0,-6,-33,-12,41,43,5,0,21/09/2020 6:34:27
-7,-12,-14,-18,-78,-8,-20,0,21/09/2020 6:34:27
8,20,-12,-11,-34,11,18,0,21/09/2020 6:34:27
1,-2,-25,-2,35,30,27,0,21/09/2020 6:34:27
19,21,21,27,68,87,40,0,21/09/2020 6:34:27
-11,-6,23,19,-5,-28,-22,0,21/09/2020 6:34:27
-6,-7,-11,-52,-54,10,-6,0,21/09/2020 6:34:27
-3,-4,-26,-44,23,30,12,0,21/09/2020 6:34:27
0,7,112,-58,52,-68,-22,0,21/09/2020 6:34:27
-10,-12,28,-4,-33,4,-6,0,21/09/2020 6:34:27
4,3,-43,13,54,24,20,0,21/09/2020 6:34:27
-3,-7,16,39,58,13,2,0,21/09/2020 6:34:27
12,0,-75,39,2,-39,-9,0,21/09/2020 6:34:27
-6,-2,26,-14,-82,37,-7,0,21/09/2020 6:34:27
-11,-13,-46,-35,-32,-23,-16,0,21/09/2020 6:34:27
1,13,75,34,53,19,7,0,21/09/2020 6:34:27
1,2,15,15,21,10,7,0,21/09/2020 6:34:27
-4,-7,-28,9,-36,-1,-17,0,21/09/2020 6:34:27
-8,3,2,-11,18,-13,-17,0,21/09/2020 6:34:27
0,-9,-16,-60,-9,2,5,0,21/09/2020 6:34:27
-2,-1,44,56,51,36,17,0,21/09/2020 6:34:27
-2,-1,44,56,51,36,17,0,21/09/2020 6:34:27
-1,-5,19,23,41,-31,-14,0,21/09/2020 6:34:27
-2,-2,-59,-19,-26,-46,0,0,21/09/2020 6:34:27
8,4,3,42,16,19,19,0,21/09/2020 6:34:27
-1,-6,-6,35,34,35,6,0,21/09/2020 6:34:27
-1,-8,-20,-26,74,34,7,0,21/09/2020 6:34:27
-3,-14,-54,-49,-54,12,-5,0,21/09/2020 6:34:27
-6,-14,-38,-17,-44,-56,-21,0,21/09/2020 6:34:27
-4,-8,-11,-15,-14,-4,-1,0,21/09/2020 6:34:27
9,18,-11,-19,20,20,5,0,21/09/2020 6:34:27
-9,-5,16,19,-4,-16,-20,0,21/09/2020 6:34:27
-7,-9,-26,-24,-52,-11,-4,0,21/09/2020 6:34:27
0,3,-25,3,20,48,2,0,21/09/2020 6:34:27
1,2,-6,-51,-70,87,18,0,21/09/2020 6:34:27
2,11,30,14,41,3,2,0,21/09/2020 6:34:27
-5,-9,32,-62,-99,-18,-8,0,21/09/2020 6:34:27
-1,4,5,8,-7,-27,-3,0,21/09/2020 6:34:27
4,-1,-4,3,-6,17,27,0,21/09/2020 6:34:27
-1,-12,-26,-33,-68,5,6,0,21/09/2020 6:34:27
2,-3,8,28,79,-26,-7,0,21/09/2020 6:34:27
-4,-6,-11,-13,-74,7,2,0,21/09/2020 6:34:27
-3,-7,-12,28,56,67,-5,0,21/09/2020 6:34:27
-3,-7,-12,28,56,67,-5,0,21/09/2020 6:34:27
-5,0,6,10,21,43,6,0,21/09/2020 6:34:27
0,11,51,13,54,11,12,0,21/09/2020 6:34:27
27,49,69,23,33,95,87,0,21/09/2020 6:34:27
27,49,69,23,33,95,87,0,21/09/2020 6:34:27
-6,-4,-26,16,17,12,-4,0,21/09/2020 6:34:27
0,7,35,36,40,4,-12,0,21/09/2020 6:34:27
1,6,36,12,44,21,4,0,21/09/2020 6:34:27
-12,-25,-5,1,3,-59,-35,0,21/09/2020 6:34:27
4,-1,-4,-17,-9,-21,12,0,21/09/2020 6:34:28
4,-7,-85,19,56,38,28,0,21/09/2020 6:34:28
-5,-23,-84,-32,-73,35,-6,0,21/09/2020 6:34:28
-7,-10,15,28,92,-6,-11,0,21/09/2020 6:34:28
-4,-11,9,-23,-49,-38,-8,0,21/09/2020 6:34:28
-6,1,55,-14,-1,-10,-16,0,21/09/2020 6:34:28
-10,-5,-1,11,52,-8,-18,0,21/09/2020 6:34:28
8,-7,-60,6,54,-10,15,0,21/09/2020 6:34:28
13,7,-1,9,-31,1,21,0,21/09/2020 6:34:28
5,2,-45,-46,-93,37,26,0,21/09/2020 6:34:28
-2,8,13,44,61,-59,-19,0,21/09/2020 6:34:28
-4,-14,-57,-33,-27,53,13,0,21/09/2020 6:34:28
-13,0,21,-2,-7,-45,-33,0,21/09/2020 6:34:28
11,1,31,19,54,8,9,0,21/09/2020 6:34:28
-14,4,-7,-65,-123,-40,-19,0,21/09/2020 6:34:28
15,17,-45,10,12,-23,26,0,21/09/2020 6:34:28
1,2,-1,-19,-35,-48,-7,0,21/09/2020 6:34:28
-2,-4,-12,-38,-41,-47,-2,0,21/09/2020 6:34:28
11,-14,63,4,-22,66,11,0,21/09/2020 6:34:28
4,15,35,-17,-8,59,-4,0,21/09/2020 6:34:28
-9,-3,-5,10,34,3,-10,0,21/09/2020 6:34:28
-28,-20,-41,-31,-75,-101,-48,0,21/09/2020 6:34:28
8,5,-2,11,-8,17,2,0,21/09/2020 6:34:28
-11,-7,22,15,38,-68,-34,0,21/09/2020 6:34:28
8,-3,-73,1,76,101,50,0,21/09/2020 6:34:28
11,12,15,23,52,-3,-2,0,21/09/2020 6:34:28
4,22,40,25,-20,-22,4,0,21/09/2020 6:34:28
-9,-2,30,-31,-110,11,-14,0,21/09/2020 6:34:28
-27,-27,-24,17,53,-11,-59,0,21/09/2020 6:34:28
0,-6,-49,-11,31,0,20,0,21/09/2020 6:34:28
-9,-6,15,-3,-42,-60,-29,0,21/09/2020 6:34:28
-9,-11,-32,3,21,-37,6,0,21/09/2020 6:34:28
6,4,43,0,37,-3,12,0,21/09/2020 6:34:28
-24,-22,15,-11,-22,69,-42,0,21/09/2020 6:34:28
10,-2,-8,9,-10,13,23,0,21/09/2020 6:34:28
10,16,42,24,8,37,14,0,21/09/2020 6:34:28
3,9,18,-7,20,-20,-4,0,21/09/2020 6:34:28
8,7,-12,23,13,4,18,0,21/09/2020 6:34:28
-2,0,-10,1,7,10,-6,0,21/09/2020 6:34:28
2,2,-2,13,16,44,14,0,21/09/2020 6:34:28
0,0,10,5,6,7,-9,0,21/09/2020 6:34:28
-1,-1,-4,-5,-4,4,-5,0,21/09/2020 6:34:28
0,-2,-1,5,15,32,-5,0,21/09/2020 6:34:28
-3,-2,-2,-1,5,9,-5,0,21/09/2020 6:34:28
-1,0,3,10,6,4,0,0,21/09/2020 6:34:28
-1,0,1,1,-6,-11,-10,0,21/09/2020 6:34:28
-2,1,-4,1,-4,-8,-5,0,21/09/2020 6:34:29
1,-1,1,1,2,4,4,0,21/09/2020 6:34:29
2,-2,-3,-1,4,3,5,0,21/09/2020 6:34:29
-2,0,5,4,-4,-3,-6,0,21/09/2020 6:34:29
-3,-6,-8,-5,-23,-7,-4,0,21/09/2020 6:34:29
2,-2,-9,-6,6,1,5,0,21/09/2020 6:34:29
0,2,-2,0,10,3,-1,0,21/09/2020 6:34:29
3,4,6,2,-3,-6,1,0,21/09/2020 6:34:29
-4,-1,2,-5,1,-13,-12,0,21/09/2020 6:34:29
1,2,-1,3,-1,1,4,0,21/09/2020 6:34:29
11,0,-3,0,5,-11,-16,0,21/09/2020 6:34:29
-5,-1,1,2,-1,10,1,0,21/09/2020 6:34:29
-3,0,0,-5,-10,1,-4,0,21/09/2020 6:34:29
-2,0,-2,-11,3,2,0,0,21/09/2020 6:34:29
-3,-6,-4,-4,-1,-2,2,0,21/09/2020 6:34:29
-1,-1,0,-21,-3,-2,7,0,21/09/2020 6:34:29
-2,-1,-1,3,1,-6,-6,0,21/09/2020 6:34:29
3,2,3,7,5,2,14,0,21/09/2020 6:34:29
-15,1,5,4,1,7,-2,0,21/09/2020 6:34:29
-2,-2,-13,5,11,14,6,0,21/09/2020 6:34:29
-4,8,13,-2,-8,-8,-3,0,21/09/2020 6:34:29
-2,-6,-13,7,8,6,-6,0,21/09/2020 6:34:29
3,3,11,2,4,9,6,0,21/09/2020 6:34:29
-13,-14,-26,-7,-2,-3,-4,0,21/09/2020 6:34:29
7,8,-21,-12,-3,0,3,0,21/09/2020 6:34:29
1,-7,24,9,-3,-3,-9,0,21/09/2020 6:34:29
-4,-2,4,2,-5,-2,0,0,21/09/2020 6:34:29
-1,3,28,7,-1,2,-9,0,21/09/2020 6:34:29
-8,-22,-11,-4,1,2,1,0,21/09/2020 6:34:29
-3,3,21,-18,4,0,-3,0,21/09/2020 6:34:29
-6,-12,-37,-8,1,1,2,0,21/09/2020 6:34:29
13,22,38,1,-4,7,9,0,21/09/2020 6:34:29
-16,-33,-97,-23,-3,0,-2,0,21/09/2020 6:34:29
-14,3,29,14,4,-9,-6,0,21/09/2020 6:34:29
-16,-11,-12,-14,0,5,-3,0,21/09/2020 6:34:29
6,6,-3,23,-4,-12,-7,0,21/09/2020 6:34:29
1,-22,-100,-34,-5,15,7,0,21/09/2020 6:34:29
-1,-4,35,8,1,5,5,0,21/09/2020 6:34:29
-4,-25,-54,-28,10,12,4,0,21/09/2020 6:34:29
-3,-3,-16,12,-9,-11,-6,0,21/09/2020 6:34:29
-15,-14,-17,12,-12,-27,-15,0,21/09/2020 6:34:29
17,-13,-52,11,-7,-8,-7,0,21/09/2020 6:34:29
-21,-35,-56,-1,1,-6,-9,0,21/09/2020 6:34:29
-48,-8,125,14,0,8,-1,0,21/09/2020 6:34:29
-28,-50,-38,3,8,-2,-5,0,21/09/2020 6:34:29
-25,45,-35,12,-9,6,7,0,21/09/2020 6:34:29
-21,27,76,-2,6,3,4,0,21/09/2020 6:34:29
28,4,-67,32,5,4,6,0,21/09/2020 6:34:29
-56,-94,-25,-38,8,3,1,0,21/09/2020 6:34:29
-56,-94,-25,-38,8,3,1,0,21/09/2020 6:34:29
-31,-74,-128,-27,4,-2,-14,0,21/09/2020 6:34:29
35,-13,5,3,1,-13,0,0,21/09/2020 6:34:29
20,19,28,-10,5,23,11,0,21/09/2020 6:34:29
19,2,-69,-28,-20,0,1,0,21/09/2020 6:34:29
-50,-34,19,-10,-26,6,-12,0,21/09/2020 6:34:29
4,-17,-16,9,-4,-9,1,0,21/09/2020 6:34:29
3,36,76,47,20,-10,-9,0,21/09/2020 6:34:29
14,54,127,16,-36,-3,19,0,21/09/2020 6:34:29
29,40,24,1,-29,29,14,0,21/09/2020 6:34:30
23,-3,-51,3,16,-3,-9,0,21/09/2020 6:34:30
-18,-11,60,-5,-10,-3,7,0,21/09/2020 6:34:30
42,68,6,-23,-37,28,20,0,21/09/2020 6:34:30
11,1,-77,3,1,6,5,0,21/09/2020 6:34:30
-63,2,75,21,-3,-12,-10,0,21/09/2020 6:34:30
50,14,-66,5,11,11,12,0,21/09/2020 6:34:30
-22,-66,-54,-6,20,-5,5,0,21/09/2020 6:34:30
31,-25,-80,-35,33,55,11,0,21/09/2020 6:34:30
4,-17,-16,9,-4,-9,1,0,21/09/2020 6:34:30
19,3,-72,-42,-13,-21,-7,0,21/09/2020 6:34:30
83,54,-57,-7,1,-10,-1,0,21/09/2020 6:34:30
-46,-65,-51,-34,20,-54,-33,0,21/09/2020 6:34:30
26,73,111,51,4,-18,-11,0,21/09/2020 6:34:30
-84,-43,98,4,-28,-8,-15,0,21/09/2020 6:34:30
11,20,17,-26,0,4,-9,0,21/09/2020 6:34:30
-34,-55,-84,-20,-38,-7,-2,0,21/09/2020 6:34:30
-5,-79,-128,13,3,10,3,0,21/09/2020 6:34:30
16,70,115,1,-6,4,1,0,21/09/2020 6:34:30
3,18,62,-15,7,6,4,0,21/09/2020 6:34:30
-50,10,127,-9,-14,9,-4,0,21/09/2020 6:34:30
41,-22,-28,-12,25,49,17,0,21/09/2020 6:34:30
6,-12,-95,-11,19,-2,3,0,21/09/2020 6:34:30
-31,28,93,-10,7,70,21,0,21/09/2020 6:34:30
40,42,-118,-27,-28,38,20,0,21/09/2020 6:34:30
7,19,-50,23,5,-12,5,0,21/09/2020 6:34:30
12,48,86,18,7,-21,-4,0,21/09/2020 6:34:30
28,-24,-106,-23,17,-8,-13,0,21/09/2020 6:34:30
6,5,-20,17,0,24,13,0,21/09/2020 6:34:30
-15,-45,-91,-15,-48,45,5,0,21/09/2020 6:34:30
0,57,127,9,20,-66,-12,0,21/09/2020 6:34:30
5,-14,-83,9,9,76,17,0,21/09/2020 6:34:30
-62,-69,11,21,4,-20,-5,0,21/09/2020 6:34:30
-32,-3,101,-3,4,-46,-17,0,21/09/2020 6:34:30
45,48,66,-11,25,-14,-7,0,21/09/2020 6:34:30
18,-13,-33,-37,-7,38,19,0,21/09/2020 6:34:30
-17,-24,-63,51,8,70,18,0,21/09/2020 6:34:30
-41,-6,30,22,-15,-38,-20,0,21/09/2020 6:34:30
23,81,8,-15,-25,-33,-6,0,21/09/2020 6:34:30
-11,9,-7,-26,-23,-19,-9,0,21/09/2020 6:34:30
40,16,18,-30,-47,27,10,0,21/09/2020 6:34:30
-53,-40,31,8,15,-62,-21,0,21/09/2020 6:34:30
19,-5,65,12,22,-19,-13,0,21/09/2020 6:34:30
69,92,98,42,21,-5,2,0,21/09/2020 6:34:30
-17,-5,-11,-3,-48,35,5,0,21/09/2020 6:34:30
-17,-16,82,6,13,-15,-2,0,21/09/2020 6:34:30
-10,-20,-67,-2,22,-17,-5,0,21/09/2020 6:34:30
2,22,-7,-18,-58,-35,4,0,21/09/2020 6:34:30
-74,-19,113,49,21,-17,-14,0,21/09/2020 6:34:30
-3,4,36,-2,-21,-54,-32,0,21/09/2020 6:34:30
-13,-5,39,31,55,31,11,0,21/09/2020 6:34:30
54,36,79,4,66,43,1,0,21/09/2020 6:34:30
14,-11,-27,20,-19,66,15,0,21/09/2020 6:34:31
-11,-14,-14,14,19,24,13,0,21/09/2020 6:34:31
-3,-20,-60,-23,-72,-34,-2,0,21/09/2020 6:34:31
0,32,-1,20,58,81,12,0,21/09/2020 6:34:31
-11,-2,9,11,7,-28,-13,0,21/09/2020 6:34:31
-24,1,118,13,3,7,1,0,21/09/2020 6:34:31
16,63,125,-6,-81,12,20,0,21/09/2020 6:34:31
-23,-4,-8,15,45,-20,-16,0,21/09/2020 6:34:31
0,22,20,8,-42,8,2,0,21/09/2020 6:34:31
-34,-20,46,-6,17,-20,-10,0,21/09/2020 6:34:31
7,41,59,19,1,6,2,0,21/09/2020 6:34:31
15,56,89,17,11,-17,-8,0,21/09/2020 6:34:31
7,-6,-47,1,-20,-21,-6,0,21/09/2020 6:34:31
-13,-17,-65,-5,12,-7,-3,0,21/09/2020 6:34:31
56,20,-30,-22,-13,8,4,0,21/09/2020 6:34:31
56,30,-63,-15,-66,-35,-6,0,21/09/2020 6:34:31
-20,-37,-123,-16,20,-12,-4,0,21/09/2020 6:34:31
-99,-51,-1,-15,-3,-50,-14,0,21/09/2020 6:34:31
2,8,-44,-28,9,31,8,0,21/09/2020 6:34:31
17,-2,-35,-16,3,-1,-6,0,21/09/2020 6:34:31
-1,-16,-29,0,8,-23,-1,0,21/09/2020 6:34:31
-11,-10,-13,-14,-27,22,5,0,21/09/2020 6:34:31
-9,-14,-34,-5,-6,-5,-1,0,21/09/2020 6:34:31
20,-15,-19,-2,5,25,-2,0,21/09/2020 6:34:31
-16,-8,30,19,-6,-7,-11,0,21/09/2020 6:34:31
-22,-22,-63,-5,-17,-56,-9,0,21/09/2020 6:34:31
43,45,-14,4,27,26,10,0,21/09/2020 6:34:31
6,-21,-13,-3,3,-10,0,0,21/09/2020 6:34:31
-16,-4,-8,-17,-47,-18,7,0,21/09/2020 6:34:31
-103,-52,4,-9,21,-15,-3,0,21/09/2020 6:34:31
-19,-6,-7,3,2,-9,-2,0,21/09/2020 6:34:31
2,7,-18,14,22,5,5,0,21/09/2020 6:34:31
19,-17,34,9,20,-44,-8,0,21/09/2020 6:34:31
-33,-26,12,-4,-10,5,-3,0,21/09/2020 6:34:31
74,93,6,-6,-29,-15,-13,0,21/09/2020 6:34:31
-44,-42,-36,-9,0,45,-5,0,21/09/2020 6:34:31
11,23,11,0,-10,44,11,0,21/09/2020 6:34:31
52,43,-25,-18,-22,21,17,0,21/09/2020 6:34:31
-45,-35,-9,7,6,-13,-3,0,21/09/2020 6:34:31
-9,9,12,-7,-5,2,10,0,21/09/2020 6:34:31
-27,-11,30,4,-1,9,-3,0,21/09/2020 6:34:31
-5,-7,12,10,-1,-10,2,0,21/09/2020 6:34:31
-14,3,-45,1,2,-2,-11,0,21/09/2020 6:34:31
6,37,94,36,8,5,14,0,21/09/2020 6:34:31
-17,-4,27,-17,-39,-4,-7,0,21/09/2020 6:34:32
-22,-25,-48,-26,5,-6,-10,0,21/09/2020 6:34:32
-30,-28,-14,-15,-18,-12,-16,0,21/09/2020 6:34:32
-3,2,42,41,62,28,12,0,21/09/2020 6:34:32
5,-5,-41,25,11,0,2,0,21/09/2020 6:34:32
14,-1,-10,6,14,-3,0,0,21/09/2020 6:34:32
42,8,-9,-4,14,5,9,0,21/09/2020 6:34:32
0,2,-12,-19,-44,-5,-2,0,21/09/2020 6:34:32
-54,-8,-3,18,23,1,-5,0,21/09/2020 6:34:32
-20,-12,-26,-6,-32,-13,-17,0,21/09/2020 6:34:32
-2,-9,-23,-41,-51,-17,-12,0,21/09/2020 6:34:32
-2,-1,3,15,50,2,-4,0,21/09/2020 6:34:32
-5,-2,-9,5,24,6,5,0,21/09/2020 6:34:32
-9,9,20,10,23,10,4,0,21/09/2020 6:34:32
4,1,8,1,6,2,6,0,21/09/2020 6:34:32
-11,-1,-6,-13,4,-8,-5,0,21/09/2020 6:34:32
13,0,-5,-6,-5,7,8,0,21/09/2020 6:34:32
3,5,10,3,-12,-22,-9,0,21/09/2020 6:34:32
-14,-12,-23,-27,-19,-10,-8,0,21/09/2020 6:34:32
0,-2,-5,-2,-9,38,14,0,21/09/2020 6:34:32
-42,-8,-5,0,4,16,1,0,21/09/2020 6:34:32
-51,1,6,7,13,-20,-10,0,21/09/2020 6:34:32
-51,-11,19,6,6,-3,-6,0,21/09/2020 6:34:32
-9,-25,-6,3,7,12,2,0,21/09/2020 6:34:32
11,5,-5,-2,7,43,16,0,21/09/2020 6:34:32
21,5,-21,8,-5,-14,-2,0,21/09/2020 6:34:32
58,60,16,-11,-13,-6,-6,0,21/09/2020 6:34:32
-22,-15,-2,5,-14,-26,-16,0,21/09/2020 6:34:32
35,20,23,-6,1,0,1,0,21/09/2020 6:34:32
-73,-41,-13,7,0,18,2,0,21/09/2020 6:34:32
6,-1,-2,-9,3,1,-1,0,21/09/2020 6:34:32
-12,-22,-2,5,-4,15,7,0,21/09/2020 6:34:32
-8,-6,-9,-9,-14,-48,-10,0,21/09/2020 6:34:32
52,34,17,7,5,5,7,0,21/09/2020 6:34:32
10,1,5,3,0,-7,-5,0,21/09/2020 6:34:32
38,12,2,-1,2,4,3,0,21/09/2020 6:34:32
-38,-26,2,-8,-10,-18,-1,0,21/09/2020 6:34:32
41,5,-2,8,3,28,9,0,21/09/2020 6:34:32
-11,-4,-6,1,-1,-14,-5,0,21/09/2020 6:34:32
-9,-2,7,-1,-2,-24,-15,0,21/09/2020 6:34:32
-18,7,-1,-8,3,17,3,0,21/09/2020 6:34:32
28,40,30,8,10,17,4,0,21/09/2020 6:34:32
-41,-23,-19,-10,-9,10,2,0,21/09/2020 6:34:32
0,-2,8,-7,2,-5,-11,0,21/09/2020 6:34:32
-12,-6,-21,2,-2,-8,-3,0,21/09/2020 6:34:32
29,22,21,-2,8,14,11,0,21/09/2020 6:34:32
16,4,12,-1,7,15,3,0,21/09/2020 6:34:32
11,-15,-12,-1,-1,4,4,0,21/09/2020 6:34:32
-22,-23,-22,-13,-14,-6,-12,0,21/09/2020 6:34:32
88,85,-19,-11,-7,-1,-1,0,21/09/2020 6:34:32
-51,-40,-13,11,-10,-22,-11,0,21/09/2020 6:34:32
25,48,70,11,1,11,17,0,21/09/2020 6:34:32
-34,-44,-32,-3,-8,-10,-5,0,21/09/2020 6:34:32
-4,7,-1,-7,2,-7,-3,0,21/09/2020 6:34:32
1,-18,-4,7,-2,-4,8,0,21/09/2020 6:34:32
-49,-30,15,6,1,-6,-5,0,21/09/2020 6:34:32
60,48,51,1,2,-34,-1,0,21/09/2020 6:34:32
-17,-19,-18,-15,4,1,-3,0,21/09/2020 6:34:32
67,-8,-30,8,9,-8,6,0,21/09/2020 6:34:32
-10,-21,-35,-15,-1,24,5,0,21/09/2020 6:34:32
11,16,-16,3,-4,-48,-10,0,21/09/2020 6:34:32
15,-12,-43,-7,-18,5,1,0,21/09/2020 6:34:32
-15,16,-6,-7,-2,-25,-7,0,21/09/2020 6:34:32
-28,-26,-19,-6,-10,1,-1,0,21/09/2020 6:34:33
31,-1,10,14,2,30,6,0,21/09/2020 6:34:33
-22,-6,9,6,-24,-22,-3,0,21/09/2020 6:34:33
16,3,-3,-7,1,-9,-6,0,21/09/2020 6:34:33
-1,10,1,1,5,33,16,0,21/09/2020 6:34:33
60,48,-15,-1,4,72,33,0,21/09/2020 6:34:33
38,17,-32,-5,20,8,11,0,21/09/2020 6:34:33
27,38,16,-7,-19,29,15,0,21/09/2020 6:34:33
-46,-21,3,7,2,2,-9,0,21/09/2020 6:34:33
-35,10,21,8,1,-5,-7,0,21/09/2020 6:34:33
-19,-8,-10,-10,5,-12,-6,0,21/09/2020 6:34:33
-9,5,15,-2,9,-4,-7,0,21/09/2020 6:34:33
13,10,2,2,2,4,9,0,21/09/2020 6:34:33
17,5,-11,2,-2,29,5,0,21/09/2020 6:34:33
-5,11,39,-9,-34,6,-1,0,21/09/2020 6:34:33
29,77,81,26,9,-12,4,0,21/09/2020 6:34:33
-6,-21,-59,-14,-1,-3,-9,0,21/09/2020 6:34:33
5,-6,-57,-25,-22,45,25,0,21/09/2020 6:34:33
-12,-22,-1,-10,-17,-7,-5,0,21/09/2020 6:34:33
-2,-4,-8,-1,16,15,11,0,21/09/2020 6:34:33
-14,-11,-11,-28,-18,-40,-19,0,21/09/2020 6:34:33
11,44,18,39,55,-15,-9,0,21/09/2020 6:34:33
4,17,6,7,-5,-7,-7,0,21/09/2020 6:34:33
15,37,57,-7,-39,1,0,0,21/09/2020 6:34:33
-23,-23,84,-1,-11,-38,-16,0,21/09/2020 6:34:33
-4,15,2,7,1,-5,1,0,21/09/2020 6:34:33
-14,-35,-43,4,8,-12,5,0,21/09/2020 6:34:33
13,24,62,21,14,20,8,0,21/09/2020 6:34:33
-39,-37,29,-2,-13,1,-7,0,21/09/2020 6:34:33
-23,-52,79,17,-14,-12,-10,0,21/09/2020 6:34:33
-23,-15,-20,-7,-17,63,19,0,21/09/2020 6:34:33
-7,6,20,-20,-3,5,-2,0,21/09/2020 6:34:33
7,16,-2,4,-26,-17,-2,0,21/09/2020 6:34:33
34,13,-66,0,28,6,4,0,21/09/2020 6:34:33
8,14,-27,3,5,10,6,0,21/09/2020 6:34:33
34,3,1,12,-6,10,9,0,21/09/2020 6:34:33
-45,-49,-4,1,-1,-33,-13,0,21/09/2020 6:34:33
-2,11,21,15,34,-30,-5,0,21/09/2020 6:34:34
-44,2,-24,-18,-14,44,9,0,21/09/2020 6:34:34
1,10,17,-7,-1,-2,5,0,21/09/2020 6:34:34
48,56,-57,0,5,-13,-3,0,21/09/2020 6:34:34
-1,33,-17,0,-6,49,12,0,21/09/2020 6:34:34
-38,-28,26,-8,-19,17,13,0,21/09/2020 6:34:34
25,22,41,-3,-4,-26,-14,0,21/09/2020 6:34:34
6,8,-3,-18,20,55,6,0,21/09/2020 6:34:34
18,25,61,11,-13,-34,-12,0,21/09/2020 6:34:34
-17,-27,-48,-5,0,-27,-9,0,21/09/2020 6:34:34
21,22,15,-12,-34,61,16,0,21/09/2020 6:34:34
76,58,-24,14,12,-38,-6,0,21/09/2020 6:34:34
11,0,34,8,-18,-34,-10,0,21/09/2020 6:34:34
-17,-7,-8,-9,3,2,4,0,21/09/2020 6:34:34
-13,-6,30,9,15,-11,-10,0,21/09/2020 6:34:34
-36,-31,-55,9,33,4,2,0,21/09/2020 6:34:34
-16,-17,-43,-8,-1,-30,-12,0,21/09/2020 6:34:34
43,-1,-59,-1,43,42,15,0,21/09/2020 6:34:34
-64,-63,-15,0,-7,26,-1,0,21/09/2020 6:34:34
8,27,46,5,-23,-52,-10,0,21/09/2020 6:34:34
7,-4,-30,23,44,-33,-13,0,21/09/2020 6:34:34
-29,-33,-41,0,-17,-29,-7,0,21/09/2020 6:34:34
45,46,62,27,-13,29,4,0,21/09/2020 6:34:34
44,41,-5,-6,-26,18,15,0,21/09/2020 6:34:34
-40,-7,73,8,-4,21,-2,0,21/09/2020 6:34:34
52,33,-6,7,14,11,13,0,21/09/2020 6:34:34
-31,-8,127,-28,29,13,-7,0,21/09/2020 6:34:34
20,28,-33,-30,-4,-14,-7,0,21/09/2020 6:34:34
-13,25,74,26,-12,-1,-4,0,21/09/2020 6:34:34
-13,-36,-65,3,-8,-5,6,0,21/09/2020 6:34:34
46,7,4,-29,-64,41,4,0,21/09/2020 6:34:34
9,3,-8,-8,-3,7,15,0,21/09/2020 6:34:34
52,58,18,-15,-54,10,22,0,21/09/2020 6:34:34
31,24,-49,35,20,-26,9,0,21/09/2020 6:34:34
-57,-18,60,-7,-31,65,5,0,21/09/2020 6:34:34
-32,-59,-107,-13,8,-7,-12,0,21/09/2020 6:34:34
-24,-35,-52,16,37,8,-9,0,21/09/2020 6:34:34
26,36,9,14,-5,-4,11,0,21/09/2020 6:34:34
24,-7,-39,-31,-36,115,37,0,21/09/2020 6:34:34
1,12,4,-9,-9,-13,-19,0,21/09/2020 6:34:34
7,12,-9,-25,-21,45,13,0,21/09/2020 6:34:34
27,9,37,-1,23,-86,-24,0,21/09/2020 6:34:34
114,85,-68,16,5,72,38,0,21/09/2020 6:34:34
-15,-18,-49,-23,17,-38,-17,0,21/09/2020 6:34:34
-8,94,39,36,0,-7,8,0,21/09/2020 6:34:34
-2,-1,-34,7,34,3,-7,0,21/09/2020 6:34:34
21,28,71,6,7,33,23,0,21/09/2020 6:34:34
15,-68,-78,8,-1,-20,-9,0,21/09/2020 6:34:34
-39,-30,67,1,-4,0,-6,0,21/09/2020 6:34:34
-6,-23,-99,-31,26,10,6,0,21/09/2020 6:34:34
-29,-9,-8,7,4,-16,-11,0,21/09/2020 6:34:34
-19,-40,40,6,-10,-22,-5,0,21/09/2020 6:34:34
-25,13,93,-11,-9,-37,-11,0,21/09/2020 6:34:34
61,18,-77,7,19,14,9,0,21/09/2020 6:34:34
0,-15,-69,-6,9,27,-5,0,21/09/2020 6:34:34
5,-4,89,22,25,22,13,0,21/09/2020 6:34:34
-11,-13,-15,2,15,16,7,0,21/09/2020 6:34:34
-31,20,85,11,-23,-7,0,0,21/09/2020 6:34:34
-32,-28,-61,-22,-8,-10,-8,0,21/09/2020 6:34:34
65,65,-47,-7,10,8,10,0,21/09/2020 6:34:34
127,101,3,-1,15,18,14,0,21/09/2020 6:34:34
21,5,-68,-18,1,-1,-2,0,21/09/2020 6:34:34
60,90,75,26,32,-15,7,0,21/09/2020 6:34:34
-106,-109,-41,4,-1,-13,-14,0,21/09/2020 6:34:34
16,28,-62,-18,-20,-8,1,0,21/09/2020 6:34:35
-37,-76,34,-14,-6,0,-13,0,21/09/2020 6:34:35
-21,-37,40,7,-11,-2,-4,0,21/09/2020 6:34:35
-2,56,105,20,-34,-13,-1,0,21/09/2020 6:34:35
7,16,-6,-17,1,44,12,0,21/09/2020 6:34:35
35,24,-9,-6,-3,7,3,0,21/09/2020 6:34:35
-5,-13,-40,-22,1,8,9,0,21/09/2020 6:34:35
-30,-21,58,-1,-3,-14,-8,0,21/09/2020 6:34:35
-29,-33,4,3,-2,15,1,0,21/09/2020 6:34:35
-54,-44,60,-2,0,2,-2,0,21/09/2020 6:34:35
8,-21,-76,-23,-11,-3,-3,0,21/09/2020 6:34:35
-3,-3,39,17,-74,-1,5,0,21/09/2020 6:34:35
-46,-63,-18,6,24,-10,-3,0,21/09/2020 6:34:35
-114,-102,-128,-6,-1,-7,-7,0,21/09/2020 6:34:35
38,55,-5,14,11,3,5,0,21/09/2020 6:34:35
-73,-61,-74,-23,-15,10,5,0,21/09/2020 6:34:35
12,59,5,10,32,-50,-7,0,21/09/2020 6:34:35
-3,-30,-37,4,23,-10,-11,0,21/09/2020 6:34:35
20,21,-23,-4,3,1,-2,0,21/09/2020 6:34:35
-20,48,88,-7,9,1,2,0,21/09/2020 6:34:35
30,24,-70,14,16,33,14,0,21/09/2020 6:34:35
79,96,59,23,18,12,14,0,21/09/2020 6:34:35
3,-58,-91,24,10,17,18,0,21/09/2020 6:34:35
34,30,70,-12,-6,-5,0,0,21/09/2020 6:34:35
77,99,71,24,12,2,2,0,21/09/2020 6:34:35
-128,-85,-20,-20,-11,-12,-16,0,21/09/2020 6:34:35
-2,8,36,-7,-18,-14,-16,0,21/09/2020 6:34:35
52,54,-38,8,18,11,5,0,21/09/2020 6:34:35
96,107,91,37,5,8,11,0,21/09/2020 6:34:35
-34,-53,-66,-12,3,0,1,0,21/09/2020 6:34:35
29,13,-98,-9,0,-1,-1,0,21/09/2020 6:34:35
-69,-48,50,-8,-13,-9,-11,0,21/09/2020 6:34:35
-3,5,6,16,7,8,13,0,21/09/2020 6:34:35
-37,-27,36,-5,-5,-3,-4,0,21/09/2020 6:34:35
72,88,85,15,-10,-3,5,0,21/09/2020 6:34:35
-39,-1,-12,-11,0,-4,-2,0,21/09/2020 6:34:35
-111,-53,-91,-22,-7,-15,-28,0,21/09/2020 6:34:35
-34,-50,-89,-16,-4,-7,-7,0,21/09/2020 6:34:35
-28,-23,-12,-14,-5,4,4,0,21/09/2020 6:34:35
75,45,3,-7,-6,-1,0,0,21/09/2020 6:34:36
-55,-31,46,-3,8,5,-2,0,21/09/2020 6:34:36
-43,-31,-72,0,3,4,-5,0,21/09/2020 6:34:36
76,53,106,11,-13,-4,15,0,21/09/2020 6:34:36
105,73,-18,-1,-2,1,8,0,21/09/2020 6:34:36
-16,-29,-37,16,26,-23,-18,0,21/09/2020 6:34:36
21,25,86,17,-13,-16,-6,0,21/09/2020 6:34:36
4,-2,10,-17,4,12,-9,0,21/09/2020 6:34:36
-15,-28,-90,-4,-2,4,6,0,21/09/2020 6:34:36
40,55,-54,-6,-7,-18,-9,0,21/09/2020 6:34:36
-32,17,125,3,-6,-35,-14,0,21/09/2020 6:34:36
32,-8,-26,-5,-8,29,12,0,21/09/2020 6:34:36
6,1,-2,1,1,-47,-6,0,21/09/2020 6:34:36
-5,-2,4,2,18,28,13,0,21/09/2020 6:34:36
-52,-50,38,-9,-1,-20,-13,0,21/09/2020 6:34:36
-8,-27,-7,-7,-4,8,-1,0,21/09/2020 6:34:36
-10,-5,-7,-15,1,10,-1,0,21/09/2020 6:34:36
-61,-29,38,3,-3,-39,-3,0,21/09/2020 6:34:36
-13,-9,16,6,-41,16,7,0,21/09/2020 6:34:36
19,14,4,3,9,8,17,0,21/09/2020 6:34:36
-7,-10,-8,7,17,21,0,0,21/09/2020 6:34:36
-4,7,-14,-13,2,20,-1,0,21/09/2020 6:34:36
0,-10,-12,-13,-12,49,5,0,21/09/2020 6:34:36
13,15,-25,-5,-18,-20,-9,0,21/09/2020 6:34:36
6,-15,7,3,21,-49,-6,0,21/09/2020 6:34:36
24,12,-88,-23,-64,116,43,0,21/09/2020 6:34:36
-25,1,13,16,27,-17,-9,0,21/09/2020 6:34:36
18,12,30,-3,2,-12,-2,0,21/09/2020 6:34:36
-21,-28,-8,3,5,6,-5,0,21/09/2020 6:34:36
-10,-10,-9,-9,-18,-78,-26,0,21/09/2020 6:34:36
-3,-16,12,12,7,-1,-8,0,21/09/2020 6:34:36
-11,19,45,5,3,-15,-1,0,21/09/2020 6:34:36
-29,-25,-19,2,-9,2,-10,0,21/09/2020 6:34:36
7,10,9,1,4,-10,-13,0,21/09/2020 6:34:36
29,1,35,-5,-9,1,30,0,21/09/2020 6:34:36
5,-2,-29,-3,13,21,0,0,21/09/2020 6:34:36
-12,21,33,-3,11,30,4,0,21/09/2020 6:34:36
-25,8,-10,-5,1,2,-6,0,21/09/2020 6:34:36
-14,-17,-24,-11,-15,5,-2,0,21/09/2020 6:34:36
12,-11,0,-6,-2,-7,-4,0,21/09/2020 6:34:36
-65,-18,-10,-12,-6,44,8,0,21/09/2020 6:34:36
15,-13,-4,-2,12,3,-8,0,21/09/2020 6:34:36
47,27,25,10,-14,-22,-7,0,21/09/2020 6:34:36
18,-12,-66,-7,3,3,0,0,21/09/2020 6:34:36
-53,-6,31,-2,-4,-6,-6,0,21/09/2020 6:34:36
-3,-9,-11,7,6,8,0,0,21/09/2020 6:34:36
22,-3,-4,-2,-4,-13,-3,0,21/09/2020 6:34:36
1,2,-3,2,-19,-23,-8,0,21/09/2020 6:34:36
21,0,-12,-1,14,-17,-4,0,21/09/2020 6:34:36
-22,0,49,13,-10,-42,-10,0,21/09/2020 6:34:36
10,14,12,6,5,1,5,0,21/09/2020 6:34:36
6,6,33,21,21,-9,-1,0,21/09/2020 6:34:36
11,5,-3,-5,-63,51,29,0,21/09/2020 6:34:36
-17,-1,6,3,-12,-8,-9,0,21/09/2020 6:34:36
18,-2,-17,-5,33,21,-1,0,21/09/2020 6:34:36
-60,-8,-27,-29,-9,-18,-13,0,21/09/2020 6:34:36
-1,-7,19,8,-2,-7,-3,0,21/09/2020 6:34:36
45,9,33,-2,-8,-9,-8,0,21/09/2020 6:34:36
27,24,5,-7,6,-8,0,0,21/09/2020 6:34:36
13,21,55,18,11,-8,1,0,21/09/2020 6:34:36
-11,16,19,6,2,-6,-2,0,21/09/2020 6:34:36
-11,16,19,6,2,-6,-2,0,21/09/2020 6:34:36
-16,-65,-55,-4,1,-3,-2,0,21/09/2020 6:34:36
-8,10,4,4,0,0,0,0,21/09/2020 6:34:36
-36,-51,-54,-12,-1,-8,-6,0,21/09/2020 6:34:37
3,4,-27,-8,-4,-3,-6,0,21/09/2020 6:34:37
9,-10,4,2,1,-5,-3,0,21/09/2020 6:34:37
29,25,22,5,4,-1,-2,0,21/09/2020 6:34:37
44,40,13,9,5,0,2,0,21/09/2020 6:34:37
44,40,13,9,5,0,2,0,21/09/2020 6:34:37
-30,-39,-35,-13,-1,0,0,0,21/09/2020 6:34:37
-2,2,27,-8,-3,-4,-5,0,21/09/2020 6:34:37
-87,-32,13,-9,-6,-7,-11,0,21/09/2020 6:34:37
-10,-14,15,0,1,-1,-6,0,21/09/2020 6:34:37
9,17,17,3,-3,-2,-1,0,21/09/2020 6:34:37
-3,21,79,9,-2,-1,-2,0,21/09/2020 6:34:37
37,-14,-36,5,0,-2,-4,0,21/09/2020 6:34:37
31,-17,-78,1,3,2,6,0,21/09/2020 6:34:37
-84,-11,-16,8,0,-2,-4,0,21/09/2020 6:34:37
24,-2,-8,-16,0,2,4,0,21/09/2020 6:34:37
24,43,4,-6,-4,-9,-5,0,21/09/2020 6:34:37
-40,-38,-48,-1,-1,-1,1,0,21/09/2020 6:34:37
7,3,-4,-4,-5,-5,-7,0,21/09/2020 6:34:37
19,-5,11,4,1,4,4,0,21/09/2020 6:34:37
-45,-9,70,24,-1,-2,0,0,21/09/2020 6:34:37
48,20,-25,-2,3,0,1,0,21/09/2020 6:34:37
48,36,-3,-12,-1,-3,-2,0,21/09/2020 6:34:37
-35,-41,-85,-13,2,-4,-9,0,21/09/2020 6:34:37
-15,-23,-27,-17,0,1,0,0,21/09/2020 6:34:37
-11,7,10,-11,-1,-4,-5,0,21/09/2020 6:34:37
-7,2,-43,-2,1,5,6,0,21/09/2020 6:34:37
-21,-32,-31,-4,-4,-2,0,0,21/09/2020 6:34:37
-9,-3,22,-9,-4,-5,-7,0,21/09/2020 6:34:37
-3,-8,-73,-6,-3,-1,-1,0,21/09/2020 6:34:37
40,-15,-14,23,-3,0,1,0,21/09/2020 6:34:37
-10,30,47,3,-10,-13,-20,0,21/09/2020 6:34:37
-4,-21,-25,-6,-1,4,5,0,21/09/2020 6:34:37
40,44,48,12,0,-3,0,0,21/09/2020 6:34:37
40,44,48,12,0,-3,0,0,21/09/2020 6:34:37
-6,-14,-42,-7,-2,-8,-5,0,21/09/2020 6:34:37
4,15,-9,-4,-2,-2,-4,0,21/09/2020 6:34:37
-12,-10,5,2,2,-2,-5,0,21/09/2020 6:34:37
18,6,-6,-1,1,1,-4,0,21/09/2020 6:34:37
4,-11,15,14,7,9,11,0,21/09/2020 6:34:37
-13,3,-3,1,0,4,3,0,21/09/2020 6:34:37
25,-2,-11,0,0,-3,1,0,21/09/2020 6:34:37
-6,-1,-5,-5,2,2,3,0,21/09/2020 6:34:37
19,6,-24,0,-1,1,3,0,21/09/2020 6:34:37
-9,-2,7,-4,0,-1,0,0,21/09/2020 6:34:37
-16,0,4,-3,-3,-3,-7,0,21/09/2020 6:34:38
38,8,10,0,0,2,9,0,21/09/2020 6:34:38
-4,3,1,-3,-13,2,-18,0,21/09/2020 6:34:38
-10,5,16,44,47,-71,55,0,21/09/2020 6:34:38
-10,5,16,44,47,-71,55,0,21/09/2020 6:34:38
-40,1,0,-1,-2,15,14,0,21/09/2020 6:34:38
-9,-3,-4,-9,-3,0,-8,0,21/09/2020 6:34:38
-8,-1,-2,-5,-8,42,13,0,21/09/2020 6:34:38
-51,-10,-11,-31,-7,-68,-23,0,21/09/2020 6:34:38
-10,0,-4,7,10,111,39,0,21/09/2020 6:34:38
-19,-4,0,3,-7,-28,-27,0,21/09/2020 6:34:38
-8,1,0,-9,3,20,10,0,21/09/2020 6:34:38
-39,2,8,9,-4,4,37,0,21/09/2020 6:34:38
88,6,-3,-2,-39,-15,-19,0,21/09/2020 6:34:38
-2,0,-2,0,21,93,-9,0,21/09/2020 6:34:38
1,-6,-1,9,-19,-98,-55,0,21/09/2020 6:34:38
-11,-4,-7,-18,-27,16,18,0,21/09/2020 6:34:38
1,1,-2,-12,-10,-8,-31,0,21/09/2020 6:34:38
-37,6,9,35,33,-48,33,0,21/09/2020 6:34:38
15,6,4,3,-11,-24,-32,0,21/09/2020 6:34:38
-3,-4,-2,-19,-38,18,-10,0,21/09/2020 6:34:38
-3,-3,-5,3,9,-28,-42,0,21/09/2020 6:34:38
0,0,-3,-15,-89,-80,-53,0,21/09/2020 6:34:38
4,3,6,-55,-22,-69,53,0,21/09/2020 6:34:38
5,0,-1,87,-15,18,-14,0,21/09/2020 6:34:38
8,0,-1,4,8,55,27,0,21/09/2020 6:34:38
5,-2,-2,-43,22,37,11,0,21/09/2020 6:34:38
-4,-4,-2,-21,-67,1,1,0,21/09/2020 6:34:38
0,3,3,-8,31,15,8,0,21/09/2020 6:34:38
-12,8,2,-14,-54,2,1,0,21/09/2020 6:34:38
-20,-11,-14,-28,-1,-48,-38,0,21/09/2020 6:34:38
79,8,-1,-13,-8,-15,-11,0,21/09/2020 6:34:38
-18,-7,-4,-2,92,23,-7,0,21/09/2020 6:34:38
-27,-3,-4,-3,24,0,-18,0,21/09/2020 6:34:38
-10,-8,-1,5,82,35,15,0,21/09/2020 6:34:38
81,8,-2,-14,-11,-14,-8,0,21/09/2020 6:34:38
-11,-1,-2,-19,-95,-9,-2,0,21/09/2020 6:34:38
-83,-6,-1,5,41,34,7,0,21/09/2020 6:34:38
-48,-5,-1,4,-7,-7,0,0,21/09/2020 6:34:38
15,2,2,10,5,14,9,0,21/09/2020 6:34:38
17,-4,-1,16,107,31,8,0,21/09/2020 6:34:38
18,2,1,7,4,6,2,0,21/09/2020 6:34:38
-3,-1,-1,-14,-25,-36,10,0,21/09/2020 6:34:38
-15,-6,-8,-11,-56,-17,-16,0,21/09/2020 6:34:38
-7,2,2,16,31,7,1,0,21/09/2020 6:34:38
-2,-2,-1,13,43,29,10,0,21/09/2020 6:34:38
-8,2,2,9,99,37,4,0,21/09/2020 6:34:38
39,4,3,17,70,39,26,0,21/09/2020 6:34:38
-31,-6,0,2,0,-40,-12,0,21/09/2020 6:34:38
9,-1,-20,0,-11,11,7,0,21/09/2020 6:34:38
9,-1,-20,0,-11,11,7,0,21/09/2020 6:34:38
-32,-5,-5,-25,9,23,1,0,21/09/2020 6:34:38
-23,-10,6,5,48,36,4,0,21/09/2020 6:34:38
11,2,20,1,-23,-15,-17,0,21/09/2020 6:34:38
-5,-3,-4,-2,1,-22,-14,0,21/09/2020 6:34:38
10,8,4,7,-5,-14,25,0,21/09/2020 6:34:38
-23,6,-8,-6,-18,-20,3,0,21/09/2020 6:34:38
-22,-5,3,-1,-49,-41,-10,0,21/09/2020 6:34:39
-40,-5,-2,-12,-47,-4,-2,0,21/09/2020 6:34:39
-26,-7,-6,-10,-3,4,-7,0,21/09/2020 6:34:39
28,7,2,5,18,14,10,0,21/09/2020 6:34:39
19,-6,-10,-12,-20,-20,-23,0,21/09/2020 6:34:39
71,12,-2,13,32,5,-9,0,21/09/2020 6:34:39
-38,1,-5,5,16,-17,-5,0,21/09/2020 6:34:39
-25,-5,-7,3,17,5,-3,0,21/09/2020 6:34:39
29,0,0,2,68,22,4,0,21/09/2020 6:34:39
-16,-8,-2,-26,-84,-38,-7,0,21/09/2020 6:34:39
4,-4,-6,-19,-80,-19,-12,0,21/09/2020 6:34:39
-1,-2,-1,8,38,24,4,0,21/09/2020 6:34:39
-12,-1,-3,18,80,23,6,0,21/09/2020 6:34:39
0,-6,0,5,-30,-8,4,0,21/09/2020 6:34:39
4,2,2,2,11,-13,-2,0,21/09/2020 6:34:39
-8,0,2,-12,-72,-6,1,0,21/09/2020 6:34:39
-2,-1,2,6,-4,9,-5,0,21/09/2020 6:34:39
2,3,5,22,-12,-4,19,0,21/09/2020 6:34:39
-1,2,-2,-18,-2,7,0,0,21/09/2020 6:34:39
-10,-6,3,19,67,40,-19,0,21/09/2020 6:34:39
-10,-6,3,19,67,40,-19,0,21/09/2020 6:34:39
-3,-7,-6,-10,27,-20,-8,0,21/09/2020 6:34:39
0,-6,-2,6,13,1,-2,0,21/09/2020 6:34:39
11,6,6,-8,-45,3,13,0,21/09/2020 6:34:39
-2,0,0,40,62,36,-8,0,21/09/2020 6:34:39
0,2,0,-15,-44,-24,1,0,21/09/2020 6:34:39
0,3,1,13,28,16,8,0,21/09/2020 6:34:39
-6,-8,-2,-20,-30,-19,-2,0,21/09/2020 6:34:39
0,-1,-7,-11,-4,-26,-6,0,21/09/2020 6:34:39
0,-1,-9,-15,-38,-5,-6,0,21/09/2020 6:34:39
-3,-1,-7,-3,14,-37,-17,0,21/09/2020 6:34:39
8,4,3,3,-24,1,20,0,21/09/2020 6:34:39
-7,-17,-15,-4,12,-5,-9,0,21/09/2020 6:34:39
-6,17,15,-13,-61,-34,-9,0,21/09/2020 6:34:39
61,4,10,10,44,33,-8,0,21/09/2020 6:34:39
-7,-1,-6,9,20,14,9,0,21/09/2020 6:34:39
-7,-1,-6,9,20,14,9,0,21/09/2020 6:34:39
23,18,8,-1,6,2,5,0,21/09/2020 6:34:39
9,3,14,-2,-1,5,2,0,21/09/2020 6:34:39
1,1,2,1,-52,-32,-10,0,21/09/2020 6:34:39
6,-5,-2,23,25,31,15,0,21/09/2020 6:34:39
-22,3,-4,-12,-15,3,3,0,21/09/2020 6:34:39
20,2,4,-6,-6,-6,0,0,21/09/2020 6:34:39
-7,4,4,0,-57,7,-1,0,21/09/2020 6:34:39
-3,0,-1,11,8,-19,-5,0,21/09/2020 6:34:39
-1,-5,-5,-14,-34,-62,-15,0,21/09/2020 6:34:39
-9,-10,-22,-30,-79,-67,-13,0,21/09/2020 6:34:39
13,11,9,8,38,27,17,0,21/09/2020 6:34:39
38,23,6,-34,-32,-7,3,0,21/09/2020 6:34:39
-16,-11,-38,9,19,36,7,0,21/09/2020 6:34:39
-7,0,1,-4,-20,0,7,0,21/09/2020 6:34:39
0,0,9,1,15,18,2,0,21/09/2020 6:34:39
0,0,9,1,15,18,2,0,21/09/2020 6:34:39
-11,5,5,16,39,35,0,0,21/09/2020 6:34:39
-16,-2,2,-9,-5,-10,-7,0,21/09/2020 6:34:39
8,9,9,21,22,23,19,0,21/09/2020 6:34:39
34,0,-8,11,-4,7,-3,0,21/09/2020 6:34:40
-6,-11,-1,15,20,23,10,0,21/09/2020 6:34:40
6,7,3,18,19,15,10,0,21/09/2020 6:34:40
9,3,3,14,19,19,9,0,21/09/2020 6:34:40
10,4,7,15,12,8,1,0,21/09/2020 6:34:40
-8,-2,7,1,-7,1,10,0,21/09/2020 6:34:40
79,18,-1,1,-15,4,4,0,21/09/2020 6:34:40
-114,-16,-4,7,-4,-14,-10,0,21/09/2020 6:34:40
-48,-2,4,-2,-11,-3,3,0,21/09/2020 6:34:40
-7,-6,1,-5,-25,-8,1,0,21/09/2020 6:34:40
-33,-10,3,5,-21,-10,-4,0,21/09/2020 6:34:40
-50,-8,13,17,15,-9,-9,0,21/09/2020 6:34:40
-15,0,4,23,43,19,7,0,21/09/2020 6:34:40
34,7,-2,1,12,5,0,0,21/09/2020 6:34:40
22,11,4,-5,19,20,24,0,21/09/2020 6:34:40
52,2,-4,-14,-17,-19,-11,0,21/09/2020 6:34:40
35,6,0,4,27,0,1,0,21/09/2020 6:34:40
-24,-8,-4,5,22,9,-15,0,21/09/2020 6:34:40
10,3,-9,-19,-29,-5,-1,0,21/09/2020 6:34:40
3,-19,-11,12,27,-5,-10,0,21/09/2020 6:34:40
18,8,-6,-13,34,-40,-11,0,21/09/2020 6:34:40
-6,-3,-6,-6,-17,-5,-8,0,21/09/2020 6:36:28
-2,-1,-2,-5,-18,-9,-3,0,21/09/2020 6:36:28
-1,-1,-3,-16,-33,-25,-5,0,21/09/2020 6:36:28
2,1,2,7,16,5,3,0,21/09/2020 6:36:28
-2,-1,-2,3,-37,-9,-6,0,21/09/2020 6:36:29
2,-1,-2,-2,13,2,0,0,21/09/2020 6:36:29
-2,0,-2,-4,-26,-11,-3,0,21/09/2020 6:36:29
1,1,3,9,11,10,2,0,21/09/2020 6:36:29
0,-1,-2,-3,-31,0,-1,0,21/09/2020 6:36:29
-2,-2,-1,-9,-18,-5,-4,0,21/09/2020 6:36:29
-1,-2,-3,-13,-68,-20,-6,0,21/09/2020 6:36:29
-1,-2,-1,-6,-6,4,-1,0,21/09/2020 6:36:29
-2,-3,-4,-12,-20,-12,-3,0,21/09/2020 6:36:29
1,-2,1,10,24,5,1,0,21/09/2020 6:36:29
0,0,0,2,12,-1,0,0,21/09/2020 6:36:29
-1,-2,-3,-1,26,12,1,0,21/09/2020 6:36:29
0,1,1,7,14,12,4,0,21/09/2020 6:36:29
-1,0,-1,2,7,0,-5,0,21/09/2020 6:36:29
-2,-3,-4,-19,-20,-9,-8,0,21/09/2020 6:36:29
0,-1,-2,-6,-11,-2,2,0,21/09/2020 6:36:29
-6,2,5,14,21,14,8,0,21/09/2020 6:36:29
-2,0,0,6,28,9,1,0,21/09/2020 6:36:29
2,0,-2,-3,-11,-1,1,0,21/09/2020 6:36:29
0,1,0,4,15,2,-3,0,21/09/2020 6:36:29
6,0,1,4,17,3,-1,0,21/09/2020 6:36:29
-3,-1,0,2,-4,0,0,0,21/09/2020 6:36:29
4,1,2,-4,-11,-10,3,0,21/09/2020 6:36:29
4,2,0,1,-3,6,3,0,21/09/2020 6:36:29
-13,-3,-4,-18,-18,5,2,0,21/09/2020 6:36:29
-5,-1,-1,-7,-25,-10,-5,0,21/09/2020 6:36:29
-14,-2,0,1,9,10,1,0,21/09/2020 6:36:29
12,1,1,6,16,3,0,0,21/09/2020 6:36:29
-10,-2,0,6,25,2,5,0,21/09/2020 6:36:29
-10,-2,0,6,25,2,5,0,21/09/2020 6:36:29
0,-2,0,1,11,4,5,0,21/09/2020 6:36:29
16,-1,-1,-3,-11,5,3,0,21/09/2020 6:36:29
-3,-1,-1,4,-9,0,1,0,21/09/2020 6:36:29
6,0,-1,-3,-25,-20,-2,0,21/09/2020 6:36:29
16,1,1,-4,1,-8,-2,0,21/09/2020 6:36:29
0,-3,-3,-12,-30,-12,-5,0,21/09/2020 6:36:29
-3,2,1,-10,-11,-6,2,0,21/09/2020 6:36:29
5,2,-1,0,1,7,3,0,21/09/2020 6:36:29
0,0,1,5,44,9,2,0,21/09/2020 6:36:29
0,0,1,5,44,9,2,0,21/09/2020 6:36:29
-10,-2,-2,-4,-5,-10,-5,0,21/09/2020 6:36:29
-9,-5,-4,-7,-17,0,-5,0,21/09/2020 6:36:29
-22,-2,-3,-10,-35,-1,5,0,21/09/2020 6:36:29
0,-1,-2,2,29,-1,-4,0,21/09/2020 6:36:29
-3,1,2,0,1,-5,-4,0,21/09/2020 6:36:29
-14,-1,-1,-1,4,0,1,0,21/09/2020 6:36:29
10,2,2,5,11,14,10,0,21/09/2020 6:36:29
10,2,2,5,11,14,10,0,21/09/2020 6:36:29
0,-2,-2,-7,-6,3,2,0,21/09/2020 6:36:29
8,4,3,4,-19,-18,2,0,21/09/2020 6:36:29
13,1,2,1,-21,-5,0,0,21/09/2020 6:36:29
4,0,-1,1,-3,3,6,0,21/09/2020 6:36:29
0,-2,-3,-4,3,10,-1,0,21/09/2020 6:36:29
-1,1,0,2,2,0,-5,0,21/09/2020 6:36:29
-12,-1,1,8,43,3,0,0,21/09/2020 6:36:29
3,3,2,4,-8,6,7,0,21/09/2020 6:36:29
2,-1,-2,-6,-35,-17,-3,0,21/09/2020 6:36:29
10,0,2,5,9,9,2,0,21/09/2020 6:36:29
-2,0,-2,-7,10,6,0,0,21/09/2020 6:36:29
3,1,2,2,-3,2,0,0,21/09/2020 6:36:29
-4,-1,-3,-6,-7,4,-1,0,21/09/2020 6:36:29
-1,0,-3,-17,-80,-23,2,0,21/09/2020 6:36:29
1,-2,0,-9,-62,-5,0,0,21/09/2020 6:36:30
-1,-2,-3,-6,-6,-7,-3,0,21/09/2020 6:36:30
2,3,1,2,21,8,3,0,21/09/2020 6:36:30
0,1,0,-1,4,0,-1,0,21/09/2020 6:36:30
4,1,2,7,13,3,3,0,21/09/2020 6:36:30
-5,-1,0,16,34,21,6,0,21/09/2020 6:36:30
-6,-1,1,-1,-1,-3,0,0,21/09/2020 6:36:30
-9,-1,-4,-4,15,8,-4,0,21/09/2020 6:36:30
-5,-1,1,2,-5,-6,2,0,21/09/2020 6:36:30
0,-2,-3,-3,-1,-7,-5,0,21/09/2020 6:36:30
-8,0,-2,-2,-42,-9,-2,0,21/09/2020 6:36:30
15,-5,-9,-17,-49,-21,0,0,21/09/2020 6:36:30
15,-5,-9,-17,-49,-21,0,0,21/09/2020 6:36:30
7,0,-2,-7,-15,-11,-3,0,21/09/2020 6:36:30
6,3,3,12,31,4,2,0,21/09/2020 6:36:30
-16,-9,-8,-7,16,-3,-9,0,21/09/2020 6:36:30
-7,3,2,3,-5,4,-2,0,21/09/2020 6:36:30
-7,3,2,3,-5,4,-2,0,21/09/2020 6:36:30
-9,-23,-32,-19,-34,-10,-6,0,21/09/2020 6:36:30
-1,-1,11,5,-3,6,4,0,21/09/2020 6:36:30
37,-9,-11,3,19,4,2,0,21/09/2020 6:36:30
5,8,8,12,-17,3,4,0,21/09/2020 6:36:30
6,2,9,0,8,-1,0,0,21/09/2020 6:36:30
-1,0,-5,5,20,5,0,0,21/09/2020 6:36:30
-12,-3,5,-13,-35,-13,-1,0,21/09/2020 6:36:30
1,-4,-2,13,-1,-10,-4,0,21/09/2020 6:36:30
8,1,4,-7,-27,-1,-1,0,21/09/2020 6:36:30
-5,-5,-14,3,53,3,-8,0,21/09/2020 6:36:30
-6,7,10,-10,-27,-11,0,0,21/09/2020 6:36:30
14,6,12,15,20,36,6,0,21/09/2020 6:36:30
5,4,0,6,11,2,7,0,21/09/2020 6:36:30
-7,-13,-12,-6,-26,-11,-7,0,21/09/2020 6:36:30
-5,3,7,-7,-2,-11,0,0,21/09/2020 6:36:30
-18,7,9,5,6,0,-1,0,21/09/2020 6:36:30
26,1,-3,3,42,12,4,0,21/09/2020 6:36:30
-13,5,14,-3,-31,-4,3,0,21/09/2020 6:36:30
-8,-10,7,-9,-1,-11,-6,0,21/09/2020 6:36:30
-26,-5,-6,4,35,-1,-5,0,21/09/2020 6:36:30
-2,-3,-7,0,6,3,1,0,21/09/2020 6:36:30
0,-9,-4,-37,-93,-28,-11,0,21/09/2020 6:36:30
9,10,6,16,62,23,-3,0,21/09/2020 6:36:31
-1,-1,-5,11,11,2,9,0,21/09/2020 6:36:31
25,9,5,-14,-9,4,1,0,21/09/2020 6:36:31
-5,-7,11,-16,-83,-23,-8,0,21/09/2020 6:36:31
30,-3,20,-23,-44,-4,0,0,21/09/2020 6:36:31
10,5,6,21,27,10,9,0,21/09/2020 6:36:31
-38,-5,-13,30,6,17,13,0,21/09/2020 6:36:31
-99,-9,2,4,-6,-10,4,0,21/09/2020 6:36:31
-27,-8,5,14,14,-5,-12,0,21/09/2020 6:36:31
30,3,2,-3,-14,14,2,0,21/09/2020 6:36:31
115,5,-14,64,7,-6,-3,0,21/09/2020 6:36:31
-36,-4,1,-14,1,-8,-5,0,21/09/2020 6:36:31
-19,1,3,-15,-56,-20,-2,0,21/09/2020 6:36:31
-8,2,11,-25,-29,-3,6,0,21/09/2020 6:36:31
0,-3,-8,17,6,1,-1,0,21/09/2020 6:36:31
6,-16,-11,-9,3,-6,-10,0,21/09/2020 6:36:31
14,11,8,1,-22,2,5,0,21/09/2020 6:36:31
-21,-1,-23,-14,-40,-7,-5,0,21/09/2020 6:36:31
30,3,-3,0,-1,-5,-1,0,21/09/2020 6:36:31
8,-1,14,11,61,15,6,0,21/09/2020 6:36:31
-3,-6,2,3,-6,-3,-2,0,21/09/2020 6:36:31
11,12,13,2,-14,-5,1,0,21/09/2020 6:36:31
-71,-9,-5,-1,-24,-6,-11,0,21/09/2020 6:36:31
-25,6,-5,-8,-33,-6,-1,0,21/09/2020 6:36:31
9,-4,-3,5,4,1,-1,0,21/09/2020 6:36:31
33,-1,-6,-30,33,12,2,0,21/09/2020 6:36:31
15,1,-15,-15,-17,-9,0,0,21/09/2020 6:36:31
26,6,4,3,5,7,5,0,21/09/2020 6:36:31
-5,0,1,-4,-20,4,0,0,21/09/2020 6:36:31
-12,-3,7,2,18,-1,-4,0,21/09/2020 6:36:31
-8,0,15,10,7,4,2,0,21/09/2020 6:36:31
-30,-3,-5,-12,8,-8,-2,0,21/09/2020 6:36:31
-12,-4,-9,-13,-29,-18,-7,0,21/09/2020 6:36:31
10,-1,0,16,14,8,2,0,21/09/2020 6:36:31
-12,-5,-11,-7,3,0,0,0,21/09/2020 6:36:31
-8,0,0,8,52,-3,3,0,21/09/2020 6:36:31
6,7,5,13,46,17,4,0,21/09/2020 6:36:31
-7,3,-8,-5,-12,-4,-4,0,21/09/2020 6:36:31
5,0,3,-1,-11,3,0,0,21/09/2020 6:36:31
10,-1,1,2,-5,-3,-1,0,21/09/2020 6:36:31
-6,0,3,0,-15,-5,-6,0,21/09/2020 6:36:31
10,1,1,0,-12,-5,2,0,21/09/2020 6:36:31
10,-1,-1,-3,-1,8,3,0,21/09/2020 6:36:31
-6,-1,-1,-2,11,14,-2,0,21/09/2020 6:36:31
5,0,-1,-1,4,-1,-2,0,21/09/2020 6:36:31
-4,-6,-2,3,-16,-20,-3,0,21/09/2020 6:36:31
-5,-9,-15,-21,-51,-26,-10,0,21/09/2020 6:36:31
4,4,4,4,20,4,2,0,21/09/2020 6:36:31
-2,0,3,-2,-14,-3,-2,0,21/09/2020 6:37:41
7,4,4,-9,-34,1,5,0,21/09/2020 6:37:41
-1,0,-2,4,2,-4,-1,0,21/09/2020 6:37:42
-2,-2,1,-2,14,5,1,0,21/09/2020 6:37:42
-2,1,1,0,5,0,0,0,21/09/2020 6:37:42
1,1,2,0,-8,-3,-4,0,21/09/2020 6:37:42
1,0,3,2,1,-3,1,0,21/09/2020 6:37:42
1,0,3,2,1,-3,1,0,21/09/2020 6:37:42
0,0,0,-1,12,5,2,0,21/09/2020 6:37:42
2,0,1,2,12,-2,0,0,21/09/2020 6:37:42
-2,0,4,-5,-32,0,0,0,21/09/2020 6:37:42
-3,-3,-2,-2,8,-8,-4,0,21/09/2020 6:37:42
1,-1,-1,-2,-6,6,4,0,21/09/2020 6:37:42
1,0,1,-3,-46,-13,0,0,21/09/2020 6:37:42
-1,0,1,4,4,-2,0,0,21/09/2020 6:37:42
-1,-1,0,3,-20,4,-1,0,21/09/2020 6:37:42
-1,-1,4,-4,-3,-2,0,0,21/09/2020 6:37:42
1,0,-1,4,10,4,0,0,21/09/2020 6:37:42
0,0,-4,0,29,6,3,0,21/09/2020 6:37:42
-3,-2,-1,-4,-2,0,-4,0,21/09/2020 6:37:42
0,-1,0,1,11,0,0,0,21/09/2020 6:37:42
-1,0,3,0,-3,4,1,0,21/09/2020 6:37:42
0,1,0,-1,-21,-1,2,0,21/09/2020 6:37:42
0,-1,-3,-4,-27,-17,-3,0,21/09/2020 6:37:43
1,1,1,3,11,4,3,0,21/09/2020 6:37:43
2,0,1,12,54,10,2,0,21/09/2020 6:37:43
1,-1,-1,-3,3,-7,-2,0,21/09/2020 6:37:43
0,1,4,-2,18,2,0,0,21/09/2020 6:37:43
1,0,-2,-2,1,3,1,0,21/09/2020 6:37:43
-3,-3,0,-3,-7,-10,-3,0,21/09/2020 6:37:43
1,-3,-1,8,13,8,2,0,21/09/2020 6:37:43
1,3,3,2,-27,-3,1,0,21/09/2020 6:37:43
0,1,-2,-6,-23,-7,-3,0,21/09/2020 6:37:43
0,1,3,5,9,2,1,0,21/09/2020 6:37:43
1,0,0,5,41,8,1,0,21/09/2020 6:37:43
2,2,0,3,3,0,1,0,21/09/2020 6:37:43
-2,-1,-4,-10,-22,-12,0,0,21/09/2020 6:37:43
-2,-1,-3,-1,4,3,-2,0,21/09/2020 6:37:43
1,1,3,10,32,7,5,0,21/09/2020 6:37:43
1,0,1,3,16,4,1,0,21/09/2020 6:37:43
1,0,0,0,11,0,-1,0,21/09/2020 6:37:43
-3,-5,-3,-7,-11,-15,-3,0,21/09/2020 6:37:43
-2,-1,-1,-7,-57,-19,-4,0,21/09/2020 6:37:43
1,-1,0,6,23,7,6,0,21/09/2020 6:37:43
-2,0,0,-2,-6,5,0,0,21/09/2020 6:37:43
-1,-1,0,-3,22,4,-1,0,21/09/2020 6:37:43
0,0,0,3,10,4,0,0,21/09/2020 6:37:43
-3,-2,-1,3,25,-5,-4,0,21/09/2020 6:37:43
0,-1,1,-4,5,0,-1,0,21/09/2020 6:37:43
-2,-2,-1,-5,-32,-10,-4,0,21/09/2020 6:37:43
2,1,1,6,15,15,6,0,21/09/2020 6:37:43
0,0,-1,-12,-8,4,0,0,21/09/2020 6:37:43
0,-2,-5,-9,-28,-14,-4,0,21/09/2020 6:37:43
1,2,3,8,12,-4,2,0,21/09/2020 6:37:43
1,0,1,0,0,1,3,0,21/09/2020 6:37:43
1,0,1,0,0,1,3,0,21/09/2020 6:37:43
0,-1,-1,-2,-9,3,-2,0,21/09/2020 6:37:43
-1,-1,-2,4,8,-1,0,0,21/09/2020 6:37:43
-1,-3,-4,-12,-36,-22,-10,0,21/09/2020 6:37:43
-1,1,0,-2,-8,1,1,0,21/09/2020 6:37:43
0,-1,3,1,28,-5,-4,0,21/09/2020 6:37:43
1,1,0,0,-4,1,1,0,21/09/2020 6:37:43
0,-2,-2,-1,-18,-7,-4,0,21/09/2020 6:37:43
-2,-1,-2,-2,-3,-3,-1,0,21/09/2020 6:37:43
0,-2,-4,-4,-24,-10,0,0,21/09/2020 6:37:43
-2,-1,-3,-3,19,8,0,0,21/09/2020 6:37:43
-3,-2,-7,-4,18,8,1,0,21/09/2020 6:37:43
0,-2,-1,1,14,-1,0,0,21/09/2020 6:37:43
1,2,-1,1,-13,10,7,0,21/09/2020 6:37:43
-1,-1,-4,-6,-26,-5,-1,0,21/09/2020 6:37:43
0,1,1,2,11,0,1,0,21/09/2020 6:37:43
-1,-3,-3,-5,-12,-3,-2,0,21/09/2020 6:37:43
1,0,2,6,2,5,1,0,21/09/2020 6:37:43
-2,-1,1,0,-4,-6,-2,0,21/09/2020 6:37:43
2,1,3,1,5,3,1,0,21/09/2020 6:37:43
0,0,3,5,2,2,2,0,21/09/2020 6:37:43
0,0,4,2,5,-4,-1,0,21/09/2020 6:37:43
-2,0,2,0,-3,2,2,0,21/09/2020 6:37:43
1,1,1,-1,-3,0,-1,0,21/09/2020 6:37:43
1,-1,0,1,-10,-1,-1,0,21/09/2020 6:37:43
0,-1,-2,-5,-14,-6,-3,0,21/09/2020 6:37:43
2,-1,-7,0,6,-4,2,0,21/09/2020 6:37:43
0,0,-2,1,-24,-16,1,0,21/09/2020 6:37:43
0,0,-5,-1,1,2,1,0,21/09/2020 6:37:43
0,1,3,6,5,5,0,0,21/09/2020 6:37:43
0,0,1,-4,0,-6,-1,0,21/09/2020 6:37:43
-1,-3,-2,-4,-25,-2,-1,0,21/09/2020 6:37:43
-1,-2,-5,3,18,10,1,0,21/09/2020 6:37:44
1,0,-4,-2,4,3,1,0,21/09/2020 6:37:44
-2,-1,-1,10,-12,2,-5,0,21/09/2020 6:37:44
0,1,1,0,18,6,2,0,21/09/2020 6:37:44
-1,-2,1,-2,34,-3,-4,0,21/09/2020 6:37:44
-1,-1,-1,-4,-41,-9,-4,0,21/09/2020 6:37:44
-2,-2,-1,-8,-13,1,-2,0,21/09/2020 6:37:44
-2,-1,-3,-2,12,0,0,0,21/09/2020 6:37:44
-2,0,0,2,6,4,2,0,21/09/2020 6:37:44
0,-1,4,5,4,9,4,0,21/09/2020 6:37:44
-3,-6,-6,-22,-3,-9,-8,0,21/09/2020 6:37:44
-2,0,2,11,0,-6,-1,0,21/09/2020 6:37:44
0,-2,0,0,12,11,1,0,21/09/2020 6:37:44
0,2,1,5,20,6,3,0,21/09/2020 6:37:44
-1,0,-2,-9,-7,-7,-4,0,21/09/2020 6:37:44
1,0,3,4,5,-1,0,0,21/09/2020 6:37:44
-3,-2,-5,-3,6,-6,-3,0,21/09/2020 6:37:44
-1,-2,-1,-14,-50,-4,-3,0,21/09/2020 6:37:44
-5,-3,-11,-3,4,1,-7,0,21/09/2020 6:37:44
1,7,18,10,4,5,2,0,21/09/2020 6:37:44
1,-1,-1,3,13,12,5,0,21/09/2020 6:37:44
7,1,2,8,42,-2,-3,0,21/09/2020 6:37:44
-5,-6,-7,-1,-10,8,0,0,21/09/2020 6:37:44
-37,-38,-7,3,8,-15,-21,0,21/09/2020 6:37:44
-36,-36,-8,3,13,11,-4,0,21/09/2020 6:37:44
10,9,-17,-37,-11,30,-8,0,21/09/2020 6:37:44
2,2,-2,-11,-10,-12,0,0,21/09/2020 6:37:44
-7,-6,0,5,10,-4,-4,0,21/09/2020 6:37:44
30,25,13,8,-10,7,7,0,21/09/2020 6:37:44
-2,0,-7,-1,39,11,-2,0,21/09/2020 6:37:44
-8,-15,-8,3,-11,4,-11,0,21/09/2020 6:37:44
29,20,-5,13,21,14,10,0,21/09/2020 6:37:44
-10,2,-2,-16,-24,-19,-10,0,21/09/2020 6:37:44
53,29,21,22,30,17,8,0,21/09/2020 6:37:44
-23,-13,-7,2,-19,16,1,0,21/09/2020 6:37:44
12,27,-12,-2,-17,-25,-8,0,21/09/2020 6:37:44
5,-4,-32,-7,-34,-1,5,0,21/09/2020 6:37:44
0,10,20,2,-28,-3,-3,0,21/09/2020 6:37:44
6,0,30,2,14,-22,-8,0,21/09/2020 6:37:44
-1,-2,4,5,5,2,0,0,21/09/2020 6:37:44
-5,-1,-3,-5,15,1,0,0,21/09/2020 6:37:44
-5,-1,-3,-5,15,1,0,0,21/09/2020 6:37:45
-5,-5,-2,0,-12,-5,-4,0,21/09/2020 6:37:45
-7,-4,-11,-13,-16,8,10,0,21/09/2020 6:37:45
-6,-1,-6,2,9,-12,-2,0,21/09/2020 6:37:45
7,4,-43,0,4,-1,9,0,21/09/2020 6:37:45
0,-4,-12,27,18,23,15,0,21/09/2020 6:37:45
1,0,-12,-10,4,38,6,0,21/09/2020 6:37:45
2,0,10,0,44,11,9,0,21/09/2020 6:37:45
-1,1,-2,-34,-17,-46,-11,0,21/09/2020 6:37:45
-4,-3,6,2,63,2,-9,0,21/09/2020 6:37:45
-6,5,49,-29,-32,-25,-17,0,21/09/2020 6:37:45
-2,-11,7,22,65,54,13,0,21/09/2020 6:37:45
-3,-8,-37,-5,25,-7,2,0,21/09/2020 6:37:45
4,-2,-8,-12,-78,104,43,0,21/09/2020 6:37:45
4,-2,-8,-12,-78,104,43,0,21/09/2020 6:37:45
-4,2,-8,35,97,32,-19,0,21/09/2020 6:37:45
-19,-9,-29,9,39,5,-26,0,21/09/2020 6:37:45
5,5,-10,12,-52,17,13,0,21/09/2020 6:37:45
-34,-11,17,-30,-64,21,-6,0,21/09/2020 6:37:45
-3,-7,18,32,71,-13,-24,0,21/09/2020 6:37:45
52,17,46,3,-27,52,-9,0,21/09/2020 6:37:45
-2,12,43,-18,-20,-64,-20,0,21/09/2020 6:37:45
-10,-1,1,13,54,34,22,0,21/09/2020 6:37:45
-9,-10,-6,13,27,-81,-12,0,21/09/2020 6:37:45
-11,-30,-9,-17,-41,-35,10,0,21/09/2020 6:37:45
5,15,98,21,-8,-103,-61,0,21/09/2020 6:37:45
1,-21,-26,-8,-10,-80,-9,0,21/09/2020 6:37:45
-1,36,83,-7,-17,-48,-11,0,21/09/2020 6:37:45
33,12,-82,-10,-24,-56,1,0,21/09/2020 6:37:45
33,12,-82,-10,-24,-56,1,0,21/09/2020 6:37:45
-59,-29,53,-24,-65,-57,-34,0,21/09/2020 6:37:45
36,37,30,-1,-1,-33,-11,0,21/09/2020 6:37:45
36,37,30,-1,-1,-33,-11,0,21/09/2020 6:37:45
22,-14,-50,4,49,87,20,0,21/09/2020 6:37:45
3,16,23,0,-38,5,5,0,21/09/2020 6:37:45
32,39,5,-8,-5,-75,-25,0,21/09/2020 6:37:45
41,31,26,1,50,-12,1,0,21/09/2020 6:37:45
-37,-30,-86,-14,19,-4,-19,0,21/09/2020 6:37:45
15,-1,-19,-19,-31,85,22,0,21/09/2020 6:37:45
5,9,29,25,3,-57,-27,0,21/09/2020 6:37:45
40,40,75,82,83,20,8,0,21/09/2020 6:37:45
8,11,-33,-6,22,24,15,0,21/09/2020 6:37:45
-15,-28,-26,15,61,32,13,0,21/09/2020 6:37:45
42,6,-48,4,-18,56,28,0,21/09/2020 6:37:45
-39,-23,-21,-58,-2,4,1,0,21/09/2020 6:37:45
-26,-24,-8,2,99,3,-12,0,21/09/2020 6:37:45
-74,-34,-17,-22,-29,-1,-11,0,21/09/2020 6:37:45
43,16,28,-6,25,76,64,0,21/09/2020 6:37:45
43,16,28,-6,25,76,64,0,21/09/2020 6:37:45
10,4,58,-5,-26,95,30,0,21/09/2020 6:37:45
-8,10,5,-5,-8,-41,-13,0,21/09/2020 6:37:45
12,0,-10,3,-48,-39,-1,0,21/09/2020 6:37:45
12,0,-10,3,-48,-39,-1,0,21/09/2020 6:37:45
8,-3,-20,-16,11,-37,-7,0,21/09/2020 6:37:45
3,-4,-22,-2,-19,35,9,0,21/09/2020 6:37:45
-9,-2,15,-10,-12,-18,-7,0,21/09/2020 6:37:45
4,-1,-5,10,16,-37,-15,0,21/09/2020 6:37:45
10,5,8,27,53,16,6,0,21/09/2020 6:37:45
-1,-2,-5,-9,-32,-15,-4,0,21/09/2020 6:37:45
-5,0,8,8,11,-2,-3,0,21/09/2020 6:37:45
2,-3,-6,-43,-32,-31,-17,0,21/09/2020 6:37:45
-5,3,1,24,85,30,8,0,21/09/2020 6:37:45
7,5,-2,1,3,7,-2,0,21/09/2020 6:37:45
15,4,12,33,32,30,14,0,21/09/2020 6:37:45
-9,-6,-17,-30,-125,-35,-16,0,21/09/2020 6:37:46
12,1,3,13,-70,-27,1,0,21/09/2020 6:37:46
-22,-5,-9,-18,49,4,0,0,21/09/2020 6:37:46
47,-2,-4,0,44,0,-12,0,21/09/2020 6:37:46
-12,0,1,0,17,23,12,0,21/09/2020 6:37:46
26,2,-1,10,35,8,-3,0,21/09/2020 6:37:46
-26,-2,1,0,-6,8,3,0,21/09/2020 6:37:46
4,0,2,-1,-55,-10,3,0,21/09/2020 6:37:46
-16,-2,-3,4,18,3,-2,0,21/09/2020 6:37:46
14,-2,1,-2,-26,-20,-7,0,21/09/2020 6:37:46
-12,4,11,20,47,18,2,0,21/09/2020 6:37:46
-5,3,-2,2,57,33,3,0,21/09/2020 6:37:46
3,0,2,12,28,-3,-3,0,21/09/2020 6:37:46
30,2,4,-9,-85,-15,0,0,21/09/2020 6:37:46
-15,-2,1,-13,-36,-14,-6,0,21/09/2020 6:37:46
-21,-1,1,2,2,-2,4,0,21/09/2020 6:37:46
-19,-3,-4,1,63,8,-2,0,21/09/2020 6:37:46
11,-4,-13,-19,6,-12,1,0,21/09/2020 6:37:46
-1,-6,-8,-4,15,-14,-10,0,21/09/2020 6:37:46
1,1,-1,-17,-57,-15,-3,0,21/09/2020 6:37:46
-10,-5,0,-14,-23,10,2,0,21/09/2020 6:37:46
5,0,2,-12,-15,-3,-1,0,21/09/2020 6:37:46
9,4,5,10,7,-1,1,0,21/09/2020 6:37:46
15,2,-3,-4,-10,-8,-7,0,21/09/2020 6:37:46
-5,-2,-3,7,32,10,0,0,21/09/2020 6:37:46
-5,-3,-3,0,-36,-16,-4,0,21/09/2020 6:37:46
-5,-3,-3,0,-36,-16,-4,0,21/09/2020 6:37:46
9,1,1,2,3,11,10,0,21/09/2020 6:37:46
3,0,1,2,51,-15,0,0,21/09/2020 6:37:46
4,-1,0,6,33,15,1,0,21/09/2020 6:37:46
-6,-2,-4,-5,-9,7,1,0,21/09/2020 6:37:46
1,-5,-9,8,56,13,3,0,21/09/2020 6:37:46
-20,-1,6,4,-1,-4,0,0,21/09/2020 6:37:46
-10,7,7,17,41,22,5,0,21/09/2020 6:37:46
-4,-1,0,6,44,15,3,0,21/09/2020 6:37:46
-10,-4,-7,-5,-26,-18,-5,0,21/09/2020 6:37:46
-10,5,6,12,25,12,8,0,21/09/2020 6:37:46
-1,0,2,2,-28,-15,-4,0,21/09/2020 6:37:46
2,0,-1,-2,-14,0,-4,0,21/09/2020 6:37:46
2,-1,-1,-12,-19,-7,-3,0,21/09/2020 6:37:46
-10,-1,-6,-6,-34,3,-1,0,21/09/2020 6:37:47
15,1,14,9,8,7,-5,0,21/09/2020 6:37:47
9,3,8,-14,20,-4,-2,0,21/09/2020 6:37:47
-24,0,-17,-15,-20,-28,-10,0,21/09/2020 6:37:47
6,-1,4,31,111,35,-5,0,21/09/2020 6:37:47
25,-5,-11,-1,-9,4,5,0,21/09/2020 6:37:47
-21,8,3,4,-15,2,12,0,21/09/2020 6:37:47
7,3,-1,0,-9,6,3,0,21/09/2020 6:37:47
14,-4,-5,-1,33,54,-1,0,21/09/2020 6:37:47
4,-5,-4,-13,-100,-10,0,0,21/09/2020 6:37:47
4,3,4,4,-44,-64,8,0,21/09/2020 6:37:47
11,-4,-7,-21,-50,30,31,0,21/09/2020 6:37:47
-4,6,-2,3,13,9,-3,0,21/09/2020 6:37:47
0,-2,2,3,9,2,1,0,21/09/2020 6:41:43
-7,-1,-3,-14,-18,-4,0,0,21/09/2020 6:41:43
1,9,14,-7,4,4,1,0,21/09/2020 6:41:44
-4,1,4,-1,-4,2,-1,0,21/09/2020 6:41:44
-2,6,4,21,17,2,-1,0,21/09/2020 6:41:44
0,0,-3,-9,-32,-6,-1,0,21/09/2020 6:41:44
-1,-1,1,7,12,3,2,0,21/09/2020 6:41:44
-1,-1,1,7,12,3,2,0,21/09/2020 6:41:44
-5,-21,0,0,-3,4,2,0,21/09/2020 6:41:44
-1,13,7,-48,-80,-12,-2,0,21/09/2020 6:41:44
-10,7,-10,-48,-46,-9,-4,0,21/09/2020 6:41:44
6,18,6,-18,-26,6,4,0,21/09/2020 6:41:44
6,-3,-2,9,1,-11,-4,0,21/09/2020 6:41:44
0,7,2,19,28,8,2,0,21/09/2020 6:41:44
2,0,4,1,17,10,6,0,21/09/2020 6:41:44
1,3,-3,1,8,4,-1,0,21/09/2020 6:41:44
4,-4,-2,-1,-26,5,4,0,21/09/2020 6:41:44
2,-1,0,-9,6,7,1,0,21/09/2020 6:41:44
-5,-2,-4,-5,-9,-2,0,0,21/09/2020 6:41:44
0,0,3,-3,-39,5,1,0,21/09/2020 6:41:44
0,0,3,-3,-39,5,1,0,21/09/2020 6:41:44
3,-1,1,12,47,8,5,0,21/09/2020 6:41:44
0,1,4,-7,-30,-13,1,0,21/09/2020 6:41:44
0,-8,0,-10,-8,-10,-3,0,21/09/2020 6:41:44
-2,-6,-12,0,25,8,2,0,21/09/2020 6:41:44
-1,-2,-2,-1,-20,-3,0,0,21/09/2020 6:41:44
2,-3,-1,0,11,3,0,0,21/09/2020 6:41:45
-2,-1,-6,-11,-12,-11,-1,0,21/09/2020 6:41:45
-2,-1,2,15,-22,-6,-5,0,21/09/2020 6:41:45
-1,7,3,5,-3,-4,-1,0,21/09/2020 6:41:45
3,0,1,0,11,3,3,0,21/09/2020 6:41:45
-7,-4,-1,-12,-44,3,-5,0,21/09/2020 6:41:45
-2,-3,4,6,46,12,6,0,21/09/2020 6:41:45
1,-1,6,16,57,6,2,0,21/09/2020 6:41:45
3,-2,6,-2,5,8,-2,0,21/09/2020 6:41:45
-4,7,-2,3,8,-8,-5,0,21/09/2020 6:41:45
-1,-3,-10,9,6,-4,-1,0,21/09/2020 6:41:45
-7,-13,-4,3,-13,1,-1,0,21/09/2020 6:41:45
-1,0,-3,-16,-40,-3,3,0,21/09/2020 6:41:45
26,1,1,-15,-23,-4,-1,0,21/09/2020 6:41:45
-2,-7,-19,2,-10,-7,-3,0,21/09/2020 6:41:45
20,4,-6,7,-3,3,0,0,21/09/2020 6:41:45
-15,-15,3,3,28,2,-10,0,21/09/2020 6:41:45
8,2,-6,6,24,-4,-3,0,21/09/2020 6:41:45
-34,0,7,25,-15,2,3,0,21/09/2020 6:41:45
-15,12,-5,16,5,3,2,0,21/09/2020 6:41:45
-7,-9,-10,-7,40,-8,-6,0,21/09/2020 6:41:45
3,10,-1,-16,-3,4,1,0,21/09/2020 6:41:45
5,-5,6,-10,-15,1,4,0,21/09/2020 6:41:45
16,-7,4,13,55,7,4,0,21/09/2020 6:41:45
-16,-4,3,-20,-6,-10,-8,0,21/09/2020 6:41:45
1,2,1,-4,-33,-3,1,0,21/09/2020 6:41:45
13,-3,-7,-21,-37,-29,-10,0,21/09/2020 6:41:45
20,12,8,-1,25,3,-6,0,21/09/2020 6:41:45
-1,6,4,5,25,15,4,0,21/09/2020 6:41:45
3,-4,-5,13,-4,1,0,0,21/09/2020 6:41:45
0,-3,-8,-13,-38,-13,-3,0,21/09/2020 6:41:45
-8,-7,-7,-57,-8,-9,-2,0,21/09/2020 6:41:45
-8,-2,0,11,38,2,-3,0,21/09/2020 6:41:45
-7,-25,-3,-64,-41,4,2,0,21/09/2020 6:41:45
-8,4,0,-42,-12,4,1,0,21/09/2020 6:41:45
-23,-2,-6,-18,-61,-28,-12,0,21/09/2020 6:41:45
-7,0,6,-3,11,5,3,0,21/09/2020 6:41:45
5,2,-5,-1,44,18,4,0,21/09/2020 6:43:51
4,7,20,2,20,9,4,0,21/09/2020 6:43:51
-1,1,12,-20,-48,-6,6,0,21/09/2020 6:43:52
4,0,-6,-2,-19,-51,2,0,21/09/2020 6:43:52
-1,-1,-13,3,-1,3,-4,0,21/09/2020 6:43:52
-2,-4,-8,-11,8,3,-1,0,21/09/2020 6:43:52
-4,-6,-13,-4,-1,5,-5,0,21/09/2020 6:43:52
-1,1,4,-4,-21,-7,2,0,21/09/2020 6:43:52
0,-2,-3,1,-1,-1,0,0,21/09/2020 6:43:53
-6,-8,-22,-7,-6,-26,-16,0,21/09/2020 6:43:53
0,1,4,-11,-18,-4,0,0,21/09/2020 6:43:53
-3,-6,2,-4,-15,6,-3,0,21/09/2020 6:43:53
0,-4,-5,3,25,25,2,0,21/09/2020 6:43:53
-1,-2,-4,2,1,-17,-3,0,21/09/2020 6:43:53
2,0,-1,-4,-9,-20,3,0,21/09/2020 6:43:53
1,2,9,-1,-4,11,-1,0,21/09/2020 6:43:53
-1,6,10,2,-5,6,1,0,21/09/2020 6:43:53
-3,-3,-1,1,-1,-2,-3,0,21/09/2020 6:43:53
-3,-8,-23,-7,-9,-11,0,0,21/09/2020 6:43:53
-5,-6,-12,-1,14,14,-5,0,21/09/2020 6:43:53
4,6,13,6,5,15,4,0,21/09/2020 6:43:53
1,3,-1,-1,0,34,3,0,21/09/2020 6:43:53
0,-1,-7,2,5,21,3,0,21/09/2020 6:43:53
0,0,1,-6,-3,16,-3,0,21/09/2020 6:43:53
-2,-5,-10,-14,-28,-5,-2,0,21/09/2020 6:43:53
0,1,0,-4,-3,-11,3,0,21/09/2020 6:43:53
0,2,0,9,19,12,0,0,21/09/2020 6:43:53
-4,-7,-8,4,1,-21,-7,0,21/09/2020 6:43:53
2,3,0,4,17,28,7,0,21/09/2020 6:43:53
-3,-4,-3,-11,-15,-16,-6,0,21/09/2020 6:43:53
6,4,8,24,31,68,20,0,21/09/2020 6:43:53
-5,-5,-8,-21,-28,-15,-7,0,21/09/2020 6:43:53
0,0,0,6,12,38,9,0,21/09/2020 6:43:53
1,0,-2,-4,-12,-27,7,0,21/09/2020 6:43:53
4,4,6,20,17,-4,12,0,21/09/2020 6:43:53
-5,-2,5,-2,-1,-34,-21,0,21/09/2020 6:43:53
-2,-2,5,-15,-34,-36,-11,0,21/09/2020 6:43:53
2,1,0,16,21,31,8,0,21/09/2020 6:43:53
0,-3,1,-11,-12,-46,-7,0,21/09/2020 6:43:53
2,-2,-5,-7,-1,3,14,0,21/09/2020 6:43:53
0,0,-2,-1,-14,-8,6,0,21/09/2020 6:43:53
7,4,5,17,40,47,18,0,21/09/2020 6:43:53
-1,2,12,-3,-11,2,1,0,21/09/2020 6:43:53
-2,0,5,-2,-11,-4,-1,0,21/09/2020 6:43:53
-3,-2,-6,-2,12,-7,-7,0,21/09/2020 6:43:53
-1,-1,-7,-13,-6,26,-3,0,21/09/2020 6:43:53
-1,-4,-13,-6,-19,-51,-3,0,21/09/2020 6:43:53
1,3,3,8,-5,4,0,0,21/09/2020 6:43:53
0,1,3,8,7,-14,-3,0,21/09/2020 6:43:53
2,8,5,-9,-26,6,11,0,21/09/2020 6:43:53
-2,-5,-11,8,21,-7,-4,0,21/09/2020 6:43:53
0,1,2,11,15,-52,-9,0,21/09/2020 6:43:53
1,-3,-11,-24,-14,-9,-2,0,21/09/2020 6:43:53
0,0,0,-2,4,10,4,0,21/09/2020 6:43:53
1,2,0,6,23,20,5,0,21/09/2020 6:43:53
-2,-1,3,-5,4,14,-2,0,21/09/2020 6:43:53
1,1,-3,5,19,14,1,0,21/09/2020 6:43:53
3,10,16,-1,-29,-15,3,0,21/09/2020 6:43:53
-2,-3,-9,3,-9,-19,-6,0,21/09/2020 6:43:53
0,-1,-3,-12,-8,-4,-2,0,21/09/2020 6:43:53
-5,-7,4,8,15,-8,0,0,21/09/2020 6:43:53
-1,2,2,4,11,-14,-8,0,21/09/2020 6:43:53
1,7,21,2,-11,-7,7,0,21/09/2020 6:43:53
-3,-2,-6,-7,9,32,-1,0,21/09/2020 6:43:54
1,-3,-3,0,0,-31,-1,0,21/09/2020 6:43:54
-2,-2,2,3,-2,-51,-12,0,21/09/2020 6:43:54
0,-1,-11,-5,-1,-9,-4,0,21/09/2020 6:43:54
0,3,10,9,11,35,1,0,21/09/2020 6:43:54
-2,-1,-7,-15,-11,-9,-4,0,21/09/2020 6:43:54
0,0,-7,-9,-16,-17,-1,0,21/09/2020 6:43:54
-1,-1,-5,-9,-9,21,1,0,21/09/2020 6:43:54
0,-1,-2,2,12,18,-2,0,21/09/2020 6:43:54
-3,-1,13,7,6,-28,-6,0,21/09/2020 6:43:54
-3,-2,0,6,11,-11,0,0,21/09/2020 6:43:54
2,4,8,6,-6,-5,7,0,21/09/2020 6:43:54
0,-2,-2,1,10,48,3,0,21/09/2020 6:43:54
-1,0,-7,-4,14,-1,-4,0,21/09/2020 6:43:54
-4,-3,1,-9,-6,-36,-9,0,21/09/2020 6:43:54
-1,1,-2,-1,4,-9,-1,0,21/09/2020 6:43:54
-2,0,-2,-3,-17,3,-3,0,21/09/2020 6:43:54
-1,1,-1,-2,-6,-23,-6,0,21/09/2020 6:43:54
1,0,3,6,9,-39,-3,0,21/09/2020 6:43:54
-2,-4,-15,-6,13,17,2,0,21/09/2020 6:43:54
1,-1,-5,0,3,37,10,0,21/09/2020 6:43:54
2,5,15,9,18,-4,-2,0,21/09/2020 6:43:54
-1,-3,-7,-1,-2,11,-1,0,21/09/2020 6:43:54
-1,-8,-24,-4,0,6,-1,0,21/09/2020 6:43:54
-5,-4,-8,-14,-6,2,-12,0,21/09/2020 6:43:54
-2,0,4,-1,-11,19,2,0,21/09/2020 6:43:54
-2,-3,-4,-9,3,23,-3,0,21/09/2020 6:43:54
-2,1,1,2,-1,6,6,0,21/09/2020 6:43:54
0,0,4,9,-3,-22,-5,0,21/09/2020 6:43:54
-2,0,5,-3,3,7,-2,0,21/09/2020 6:43:54
-1,-3,-11,-18,-9,5,3,0,21/09/2020 6:43:54
0,1,8,8,-1,-12,3,0,21/09/2020 6:43:54
-2,0,15,-2,1,-35,-8,0,21/09/2020 6:43:54
1,1,3,2,-16,-2,8,0,21/09/2020 6:43:54
-1,-4,-36,-14,0,-6,-8,0,21/09/2020 6:43:54
-1,-3,-2,5,-11,-39,-6,0,21/09/2020 6:43:54
1,0,-13,-3,-8,-9,-2,0,21/09/2020 6:43:54
-2,-1,8,-2,-10,-37,-9,0,21/09/2020 6:43:54
-1,1,19,2,2,0,1,0,21/09/2020 6:43:54
-2,-2,-15,-7,13,54,-1,0,21/09/2020 6:43:54
1,0,0,8,7,4,7,0,21/09/2020 6:43:54
0,-1,-8,-19,-30,14,3,0,21/09/2020 6:43:54
2,4,22,10,4,49,19,0,21/09/2020 6:43:54
-2,-4,-8,-11,-9,-10,-3,0,21/09/2020 6:43:54
-2,0,3,11,-1,7,-1,0,21/09/2020 6:43:54
0,1,13,-5,-1,32,2,0,21/09/2020 6:43:54
1,2,14,27,23,37,4,0,21/09/2020 6:43:54
0,3,10,-13,-22,1,4,0,21/09/2020 6:43:54
-1,1,2,7,-4,-25,-2,0,21/09/2020 6:43:54
3,-2,-6,-15,4,0,0,0,21/09/2020 6:43:54
0,-5,-1,0,4,17,0,0,21/09/2020 6:43:54
1,0,-4,-19,6,-16,2,0,21/09/2020 6:43:54
4,5,5,-9,6,16,5,0,21/09/2020 6:43:55
-5,-2,15,8,-10,-25,-1,0,21/09/2020 6:43:55
0,2,13,14,-3,13,1,0,21/09/2020 6:43:55
-6,-5,-29,-36,6,-16,-7,0,21/09/2020 6:43:55
-1,-2,6,9,-5,-3,3,0,21/09/2020 6:43:55
0,-5,-47,4,25,19,12,0,21/09/2020 6:43:55
3,9,-1,-5,-3,24,6,0,21/09/2020 6:43:55
-3,-5,-25,-36,-33,-59,-9,0,21/09/2020 6:43:55
0,0,-25,9,-29,-28,-3,0,21/09/2020 6:43:55
-7,1,70,19,-2,-48,-28,0,21/09/2020 6:43:55
-7,-9,-41,-13,-9,-31,-33,0,21/09/2020 6:43:55
-4,-8,-51,-3,-9,-68,-13,0,21/09/2020 6:43:55
0,1,78,40,33,27,-8,0,21/09/2020 6:43:55
-5,-3,11,-13,-41,-12,-10,0,21/09/2020 6:43:55
3,1,-10,-2,2,37,27,0,21/09/2020 6:43:55
-4,-2,-3,-26,-63,-55,-3,0,21/09/2020 6:43:55
-3,-1,-46,23,29,-37,-17,0,21/09/2020 6:43:55
3,12,67,35,3,9,-5,0,21/09/2020 6:43:55
-1,-9,-15,-15,-18,17,10,0,21/09/2020 6:43:55
-2,-8,-31,1,-65,-70,-12,0,21/09/2020 6:43:55
4,8,-5,-12,-18,40,12,0,21/09/2020 6:43:55
2,-2,-10,-12,18,-27,5,0,21/09/2020 6:43:55
4,7,9,-1,14,4,5,0,21/09/2020 6:43:55
-3,-2,-10,9,24,-11,-6,0,21/09/2020 6:43:55
-5,-16,-74,-20,22,93,12,0,21/09/2020 6:43:55
-6,2,50,-2,-3,-23,-27,0,21/09/2020 6:43:55
1,-4,3,5,1,4,-3,0,21/09/2020 6:43:55
-6,-8,-30,-24,-67,13,-6,0,21/09/2020 6:43:55
2,2,81,16,8,43,9,0,21/09/2020 6:43:55
-6,0,-32,40,37,-14,-17,0,21/09/2020 6:43:55
3,7,43,-8,-33,-18,8,0,21/09/2020 6:43:55
-1,-7,10,5,-7,18,-2,0,21/09/2020 6:43:55
-1,-4,-38,-10,34,69,6,0,21/09/2020 6:43:55
-1,4,16,16,28,-25,0,0,21/09/2020 6:43:55
-5,-9,-25,-10,-38,22,-2,0,21/09/2020 6:43:55
-8,-4,47,-46,-113,-46,-16,0,21/09/2020 6:43:55
-9,-6,16,-4,-14,-48,-30,0,21/09/2020 6:43:55
-4,-8,6,1,6,-14,-13,0,21/09/2020 6:43:55
7,17,56,4,21,68,23,0,21/09/2020 6:43:55
0,11,81,-23,-35,-2,-8,0,21/09/2020 6:43:56
-2,-9,-3,-24,-25,67,13,0,21/09/2020 6:43:56
0,2,-11,6,46,-48,-2,0,21/09/2020 6:43:56
-2,-4,-2,24,20,-98,-6,0,21/09/2020 6:43:56
-4,4,43,23,35,-69,-23,0,21/09/2020 6:43:56
-7,-6,3,-24,-22,-109,-52,0,21/09/2020 6:43:56
-5,-9,-19,24,39,-15,-24,0,21/09/2020 6:43:56
-3,-13,-25,28,29,-22,9,0,21/09/2020 6:43:56
-3,-4,-12,-6,-42,-16,-8,0,21/09/2020 6:43:56
-7,7,44,25,12,-70,-30,0,21/09/2020 6:43:56
-1,-1,12,-16,25,-46,-8,0,21/09/2020 6:43:56
6,6,30,23,-1,28,36,0,21/09/2020 6:43:56
-6,-11,-40,-6,-32,-48,-25,0,21/09/2020 6:43:56
-4,2,32,6,33,15,-1,0,21/09/2020 6:43:56
7,13,61,2,-19,24,21,0,21/09/2020 6:43:56
-2,-10,-88,-31,-15,-53,-12,0,21/09/2020 6:43:56
-2,-4,-18,14,17,19,2,0,21/09/2020 6:43:56
5,4,-26,3,9,8,2,0,21/09/2020 6:43:56
-1,2,49,-7,9,62,15,0,21/09/2020 6:43:56
-1,5,32,-1,-46,-25,-6,0,21/09/2020 6:43:56
-2,-7,-35,-5,-17,-66,-13,0,21/09/2020 6:43:56
-3,3,61,2,-4,3,-11,0,21/09/2020 6:43:56
-3,3,61,2,-4,3,-11,0,21/09/2020 6:43:56
-1,1,-3,2,1,26,7,0,21/09/2020 6:43:56
0,5,-10,-3,21,-84,-18,0,21/09/2020 6:43:56
-6,-7,-3,-9,-5,-17,-5,0,21/09/2020 6:43:56
0,-6,-12,9,-10,24,12,0,21/09/2020 6:43:56
-4,-8,-53,4,30,6,-12,0,21/09/2020 6:43:56
1,6,24,13,5,22,5,0,21/09/2020 6:43:56
-1,8,45,12,4,7,-6,0,21/09/2020 6:43:56
2,-4,47,18,-4,83,35,0,21/09/2020 6:43:56
2,-3,-43,-15,-12,-4,6,0,21/09/2020 6:43:56
0,-4,16,-1,-23,15,14,0,21/09/2020 6:43:56
2,2,-21,-12,6,21,7,0,21/09/2020 6:43:56
1,-3,-21,-7,1,-1,6,0,21/09/2020 6:43:56
-2,1,17,-2,-24,7,-9,0,21/09/2020 6:43:56
-1,-2,-19,7,-6,-23,-1,0,21/09/2020 6:43:56
-1,1,-17,-1,37,-70,-24,0,21/09/2020 6:43:56
-2,-8,-9,10,16,-38,-4,0,21/09/2020 6:43:56
-5,2,2,8,-12,-58,-16,0,21/09/2020 6:43:56
-2,-5,-8,8,2,35,7,0,21/09/2020 6:43:56
-1,-5,2,-2,10,9,-2,0,21/09/2020 6:43:56
-3,-11,-76,-11,-4,-56,-16,0,21/09/2020 6:43:56
-3,2,30,7,-6,-101,-28,0,21/09/2020 6:43:56
-6,-9,-15,-10,7,-26,-10,0,21/09/2020 6:43:56
-1,-7,-2,-2,10,14,5,0,21/09/2020 6:43:56
2,9,37,2,15,15,5,0,21/09/2020 6:43:56
3,10,48,15,-6,0,8,0,21/09/2020 6:43:56
10,16,-6,4,4,45,26,0,21/09/2020 6:43:56
3,-1,-9,-7,-8,-9,15,0,21/09/2020 6:43:56
3,-1,-9,-7,-8,-9,15,0,21/09/2020 6:43:56
-2,1,-3,-1,0,-55,-17,0,21/09/2020 6:43:56
-2,-4,-6,2,-7,-22,-6,0,21/09/2020 6:43:56
2,1,6,2,4,-3,-1,0,21/09/2020 6:43:56
-5,7,91,11,25,9,-9,0,21/09/2020 6:43:56
-3,-5,-3,-11,-3,16,0,0,21/09/2020 6:43:56
0,-1,-6,-6,6,-3,-7,0,21/09/2020 6:43:56
0,-1,-6,-6,6,-3,-7,0,21/09/2020 6:43:56
3,0,-42,-3,-13,-46,3,0,21/09/2020 6:43:56
7,8,-28,8,-1,-2,7,0,21/09/2020 6:43:56
-1,2,25,6,-4,13,13,0,21/09/2020 6:43:56
-3,-4,12,20,-10,-18,-9,0,21/09/2020 6:43:56
-2,-5,-24,-9,-6,15,3,0,21/09/2020 6:43:56
10,2,19,-24,16,119,77,0,21/09/2020 6:43:57
-8,-13,-13,-16,-10,-12,-21,0,21/09/2020 6:43:57
1,11,40,8,-11,-41,-19,0,21/09/2020 6:43:57
-4,2,5,-18,-15,-14,-8,0,21/09/2020 6:43:57
-1,-6,-40,4,16,-2,-3,0,21/09/2020 6:43:57
0,4,1,4,0,-1,4,0,21/09/2020 6:43:57
2,1,6,2,2,55,11,0,21/09/2020 6:43:57
2,13,44,36,5,-35,-6,0,21/09/2020 6:43:57
2,-5,-2,0,-1,7,2,0,21/09/2020 6:43:57
-3,-5,-42,5,-9,-83,-27,0,21/09/2020 6:43:57
-1,3,-16,-18,5,27,-3,0,21/09/2020 6:43:57
-3,-4,-19,-7,13,37,4,0,21/09/2020 6:43:57
-2,-10,-36,-6,11,-4,-2,0,21/09/2020 6:43:57
-3,-1,-8,-6,-8,-13,-1,0,21/09/2020 6:43:57
-3,-2,-8,-23,14,57,-1,0,21/09/2020 6:43:57
-1,4,45,15,7,7,-3,0,21/09/2020 6:43:57
3,1,-14,-3,3,38,15,0,21/09/2020 6:43:57
-4,-7,-22,4,6,-25,-17,0,21/09/2020 6:43:57
1,-3,-13,-15,5,18,10,0,21/09/2020 6:43:57
-2,-2,-10,-1,-2,62,12,0,21/09/2020 6:43:57
0,0,-5,-12,-1,-23,-2,0,21/09/2020 6:43:57
0,-7,-10,2,13,-13,-8,0,21/09/2020 6:43:57
-4,-6,-25,-14,-7,-44,-10,0,21/09/2020 6:43:57
5,14,8,-18,-12,-7,17,0,21/09/2020 6:43:57
0,0,9,2,31,36,6,0,21/09/2020 6:43:57
-2,-2,4,-1,3,15,-9,0,21/09/2020 6:43:57
-2,-2,-5,-9,-4,-20,-2,0,21/09/2020 6:43:57
0,0,-5,3,-8,-33,-5,0,21/09/2020 6:43:57
1,-2,-15,-7,5,55,6,0,21/09/2020 6:43:57
0,2,-13,4,-8,-20,-1,0,21/09/2020 6:43:57
3,10,19,-21,-24,17,17,0,21/09/2020 6:43:57
-2,-4,-23,-6,-7,9,0,0,21/09/2020 6:43:57
-2,-3,3,3,-12,-50,-17,0,21/09/2020 6:43:57
-1,-3,-18,3,-5,-48,-13,0,21/09/2020 6:43:57
0,-2,8,12,-10,-21,0,0,21/09/2020 6:43:57
1,-1,-18,4,-3,23,1,0,21/09/2020 6:43:57
1,1,-1,0,4,-3,-1,0,21/09/2020 6:43:58
0,1,3,1,0,10,-1,0,21/09/2020 6:43:58
-2,-6,-18,-7,-5,-32,-11,0,21/09/2020 6:43:58
-1,-3,-2,-2,-15,-2,4,0,21/09/2020 6:43:58
1,2,25,-15,5,-8,4,0,21/09/2020 6:43:58
-6,-4,-9,5,36,39,-19,0,21/09/2020 6:43:58
-2,1,9,13,15,-64,-16,0,21/09/2020 6:43:58
3,3,-24,-14,-4,0,2,0,21/09/2020 6:43:58
2,6,21,8,-21,19,18,0,21/09/2020 6:43:58
1,4,10,-7,-11,-7,9,0,21/09/2020 6:43:58
-1,-3,-17,3,-8,-20,-7,0,21/09/2020 6:43:58
0,-3,12,4,24,4,-3,0,21/09/2020 6:43:58
0,1,6,15,-20,77,11,0,21/09/2020 6:43:58
-2,-3,11,-12,-5,-6,-4,0,21/09/2020 6:43:58
-1,0,-18,-2,-22,2,-2,0,21/09/2020 6:43:58
-3,-4,-6,-8,13,-27,-5,0,21/09/2020 6:43:58
0,-1,17,10,19,39,5,0,21/09/2020 6:43:58
-4,-5,-12,-19,2,-5,-5,0,21/09/2020 6:43:58
1,-3,-13,2,1,31,0,0,21/09/2020 6:43:58
-3,-3,-2,-13,1,35,0,0,21/09/2020 6:43:58
-3,-1,35,15,-10,-49,-12,0,21/09/2020 6:43:58
-1,-1,0,6,-6,10,7,0,21/09/2020 6:43:58
2,6,3,14,17,-8,-2,0,21/09/2020 6:43:58
-3,-6,-23,3,-18,-68,-9,0,21/09/2020 6:43:58
0,-2,-7,-5,0,13,3,0,21/09/2020 6:43:58
-3,-2,-5,-9,-6,-3,-11,0,21/09/2020 6:43:58
-1,1,1,-19,0,-13,1,0,21/09/2020 6:43:58
3,4,7,3,-9,22,16,0,21/09/2020 6:43:58
0,4,8,-4,11,63,0,0,21/09/2020 6:43:58
-2,-2,-9,-4,-2,-17,-5,0,21/09/2020 6:43:58
0,-1,1,4,12,39,9,0,21/09/2020 6:43:58
4,6,3,0,-10,-45,0,0,21/09/2020 6:43:58
0,0,-8,-5,-7,9,9,0,21/09/2020 6:43:58
-1,-5,-21,-4,0,18,2,0,21/09/2020 6:43:58
-3,-2,3,1,6,-24,-20,0,21/09/2020 6:43:58
-1,0,5,5,23,-44,-9,0,21/09/2020 6:43:58
-3,-5,-6,-5,0,3,-5,0,21/09/2020 6:43:58
-2,-4,-7,6,-6,-10,-5,0,21/09/2020 6:43:58
-2,-2,15,3,-7,-31,-4,0,21/09/2020 6:43:58
-3,0,17,1,-2,-19,-8,0,21/09/2020 6:43:58
2,6,19,-4,-15,7,4,0,21/09/2020 6:43:58
-3,-5,-16,2,-5,5,3,0,21/09/2020 6:43:58
4,0,34,12,-5,-22,12,0,21/09/2020 6:43:58
-5,-10,-34,-9,-3,-16,-11,0,21/09/2020 6:43:58
5,8,25,4,7,41,12,0,21/09/2020 6:43:58
-4,-1,14,0,-4,-50,-16,0,21/09/2020 6:43:58
0,5,25,-3,-2,4,0,0,21/09/2020 6:43:58
4,7,-1,-6,-12,4,8,0,21/09/2020 6:43:58
-5,-1,-4,-4,8,-38,-15,0,21/09/2020 6:43:58
6,3,0,6,-5,6,17,0,21/09/2020 6:43:58
1,0,-6,-6,9,26,1,0,21/09/2020 6:43:58
0,1,9,2,9,24,1,0,21/09/2020 6:43:58
-2,-6,-1,-2,2,39,-2,0,21/09/2020 6:43:58
1,1,-47,1,1,-37,-2,0,21/09/2020 6:43:58
-4,-4,9,-4,-3,7,9,0,21/09/2020 6:43:58
-1,-4,0,-1,-3,-13,-3,0,21/09/2020 6:43:58
-4,-4,15,4,-2,-17,0,0,21/09/2020 6:43:58
1,5,9,2,-13,-40,1,0,21/09/2020 6:43:58
1,3,-2,-2,-4,5,10,0,21/09/2020 6:43:58
0,3,11,-2,3,13,-3,0,21/09/2020 6:43:58
0,-3,6,3,4,62,8,0,21/09/2020 6:43:58
-7,-3,2,-12,-7,-31,-16,0,21/09/2020 6:43:58
0,2,6,-6,-6,-12,-1,0,21/09/2020 6:43:58
-2,-6,-7,6,20,52,3,0,21/09/2020 6:43:58
1,8,26,6,0,15,8,0,21/09/2020 6:43:58
-1,-6,-12,-13,4,26,-4,0,21/09/2020 6:43:59
0,-2,-36,-7,-4,21,2,0,21/09/2020 6:43:59
0,-2,10,14,-2,-56,1,0,21/09/2020 6:43:59
3,4,18,-4,17,45,8,0,21/09/2020 6:43:59
3,-1,-15,27,-4,13,7,0,21/09/2020 6:43:59
2,4,15,20,7,51,20,0,21/09/2020 6:43:59
-7,-2,37,2,-7,-89,-25,0,21/09/2020 6:43:59
-4,-9,9,-3,2,35,0,0,21/09/2020 6:43:59
3,-3,-59,-15,-1,-11,-3,0,21/09/2020 6:43:59
-2,6,10,-11,5,5,0,0,21/09/2020 6:43:59
-1,4,-19,-9,-8,19,-5,0,21/09/2020 6:43:59
-3,-8,-13,-12,-22,-65,-8,0,21/09/2020 6:43:59
-2,-7,15,0,-21,-2,3,0,21/09/2020 6:43:59
0,4,38,-15,-2,5,4,0,21/09/2020 6:43:59
1,0,12,7,-16,-12,1,0,21/09/2020 6:43:59
-3,2,29,-30,13,103,12,0,21/09/2020 6:43:59
-6,-10,-57,-3,2,-17,-9,0,21/09/2020 6:43:59
1,9,46,-17,-15,31,12,0,21/09/2020 6:43:59
1,-2,-13,14,19,48,12,0,21/09/2020 6:43:59
-1,2,35,26,4,-37,-1,0,21/09/2020 6:43:59
-2,-9,-42,-12,13,63,18,0,21/09/2020 6:43:59
-1,-5,8,-19,2,-55,-15,0,21/09/2020 6:43:59
3,10,-12,17,-6,12,3,0,21/09/2020 6:43:59
-2,-19,-92,4,7,-4,0,0,21/09/2020 6:43:59
3,7,30,18,9,-18,-4,0,21/09/2020 6:43:59
-3,0,-5,-2,4,34,-1,0,21/09/2020 6:43:59
4,5,20,34,4,-19,9,0,21/09/2020 6:43:59
0,-7,-38,-10,-8,-5,22,0,21/09/2020 6:43:59
1,-3,16,1,17,45,13,0,21/09/2020 6:43:59
-7,-8,-56,-6,12,71,2,0,21/09/2020 6:43:59
-4,-5,5,-2,11,7,-9,0,21/09/2020 6:43:59
3,7,42,23,6,-5,4,0,21/09/2020 6:43:59
3,1,-3,20,-28,-16,7,0,21/09/2020 6:43:59
1,1,14,27,0,-35,0,0,21/09/2020 6:43:59
-6,-2,30,7,-7,-53,-29,0,21/09/2020 6:43:59
-4,-8,-18,-4,9,-57,-30,0,21/09/2020 6:43:59
0,5,26,-6,8,30,3,0,21/09/2020 6:43:59
-2,6,31,12,-2,-43,-25,0,21/09/2020 6:43:59
0,-5,17,-15,-3,77,19,0,21/09/2020 6:43:59
-3,2,-1,7,25,-11,-24,0,21/09/2020 6:43:59
1,7,12,7,13,18,3,0,21/09/2020 6:44:00
3,5,48,-8,-6,76,16,0,21/09/2020 6:44:00
0,3,28,19,11,17,0,0,21/09/2020 6:44:00
0,-9,-53,10,15,18,3,0,21/09/2020 6:44:00
7,16,52,21,-3,69,27,0,21/09/2020 6:44:00
-1,-12,-73,-6,-9,10,11,0,21/09/2020 6:44:00
-1,-6,-11,-21,17,-9,-2,0,21/09/2020 6:44:00
2,6,19,-8,-5,26,0,0,21/09/2020 6:44:00
-2,-2,-12,7,8,11,-5,0,21/09/2020 6:44:00
-1,-2,4,-6,-18,-15,7,0,21/09/2020 6:44:00
-1,-2,4,-6,-18,-15,7,0,21/09/2020 6:44:00
-7,-11,9,5,-35,-117,-36,0,21/09/2020 6:44:00
-3,0,-5,-9,7,26,-5,0,21/09/2020 6:44:00
2,5,-53,2,5,34,-6,0,21/09/2020 6:44:00
0,-24,-91,-17,-9,10,8,0,21/09/2020 6:44:00
2,20,19,-5,-20,39,13,0,21/09/2020 6:44:00
1,4,26,13,25,-2,-4,0,21/09/2020 6:44:00
-2,1,24,-17,-4,20,3,0,21/09/2020 6:44:00
7,-2,-13,13,22,-4,-1,0,21/09/2020 6:44:00
-1,1,-3,-11,-8,-26,-3,0,21/09/2020 6:44:00
-2,6,2,-9,-13,-30,-1,0,21/09/2020 6:44:00
1,2,-13,1,-19,29,12,0,21/09/2020 6:44:00
-5,-14,-31,-14,-26,54,3,0,21/09/2020 6:44:00
-3,3,9,9,3,35,-1,0,21/09/2020 6:44:00
3,-1,-35,-2,10,-36,-3,0,21/09/2020 6:44:00
8,7,38,-5,17,82,44,0,21/09/2020 6:44:00
-3,-13,-52,-10,3,-15,-4,0,21/09/2020 6:44:00
-3,-11,-27,16,-17,11,1,0,21/09/2020 6:44:00
-1,1,36,0,0,-41,10,0,21/09/2020 6:44:00
-5,2,46,-7,11,-70,-22,0,21/09/2020 6:44:00
5,13,7,2,-4,-23,-4,0,21/09/2020 6:44:00
4,6,19,-9,-15,-88,-30,0,21/09/2020 6:44:00
-6,6,79,-6,0,65,12,0,21/09/2020 6:44:00
3,-1,0,-16,2,121,36,0,21/09/2020 6:44:00
-6,-17,-47,5,8,-49,-12,0,21/09/2020 6:44:00
3,0,28,-1,-3,-3,11,0,21/09/2020 6:44:00
-2,-2,-11,-8,8,-38,-11,0,21/09/2020 6:44:00
-2,-6,-44,-3,-5,-16,-3,0,21/09/2020 6:44:00
-5,12,51,16,-7,-9,-13,0,21/09/2020 6:44:00
-1,2,-4,15,20,31,11,0,21/09/2020 6:44:00
-3,-1,4,-14,19,30,8,0,21/09/2020 6:44:00
10,10,-9,4,7,84,9,0,21/09/2020 6:44:00
-2,-8,2,-12,-10,-40,-24,0,21/09/2020 6:44:00
-1,4,-8,20,1,2,0,0,21/09/2020 6:44:00
-13,-17,0,-19,-7,-39,-26,0,21/09/2020 6:44:00
9,4,-4,-3,-23,50,33,0,21/09/2020 6:44:00
-3,-10,3,9,8,-13,-3,0,21/09/2020 6:44:00
1,1,-3,11,2,38,6,0,21/09/2020 6:44:00
12,3,3,-25,-7,-24,2,0,21/09/2020 6:44:00
0,6,24,4,-12,-34,-4,0,21/09/2020 6:44:00
1,18,47,30,-3,25,3,0,21/09/2020 6:44:00
-2,4,15,32,10,-61,-8,0,21/09/2020 6:44:00
0,-4,-32,10,16,0,5,0,21/09/2020 6:44:00
26,3,28,-2,-4,18,12,0,21/09/2020 6:44:00
-4,-5,-21,-32,-1,39,-1,0,21/09/2020 6:44:00
-3,-11,-29,-28,-10,-63,-14,0,21/09/2020 6:44:00
3,9,19,23,-9,-25,-15,0,21/09/2020 6:44:00
2,14,-8,22,22,87,20,0,21/09/2020 6:44:00
-18,-2,-12,-10,-2,5,-4,0,21/09/2020 6:44:00
4,-2,-8,-33,6,-38,-36,0,21/09/2020 6:44:00
-8,-2,13,23,21,-80,-23,0,21/09/2020 6:44:00
-6,-6,-12,-28,-6,-2,-9,0,21/09/2020 6:44:01
-8,-9,-23,-12,-24,19,11,0,21/09/2020 6:44:01
-10,13,29,21,8,29,11,0,21/09/2020 6:44:01
-9,-9,-21,-8,-6,24,6,0,21/09/2020 6:44:01
6,2,1,12,-35,110,38,0,21/09/2020 6:44:01
3,1,17,-7,-8,5,2,0,21/09/2020 6:44:01
58,14,4,19,17,3,-2,0,21/09/2020 6:44:01
-25,-2,1,-8,1,-31,-12,0,21/09/2020 6:44:01
-9,4,15,-17,-12,-16,-1,0,21/09/2020 6:44:01
-8,9,23,0,-12,60,15,0,21/09/2020 6:44:01
1,-1,-3,-1,-2,5,6,0,21/09/2020 6:44:01
-15,-5,-49,-1,-7,-31,-5,0,21/09/2020 6:44:01
5,-4,27,15,-2,-36,-4,0,21/09/2020 6:44:01
-6,-5,-2,-36,-60,-38,-14,0,21/09/2020 6:44:01
-6,-5,-2,-36,-60,-38,-14,0,21/09/2020 6:44:01
3,1,13,10,7,1,2,0,21/09/2020 6:44:01
-2,3,5,26,21,2,0,0,21/09/2020 6:44:01
-7,-6,-21,-6,27,60,15,0,21/09/2020 6:44:01
-7,-6,-21,-6,27,60,15,0,21/09/2020 6:44:01
-2,-9,-10,18,20,-60,-20,0,21/09/2020 6:44:01
-2,1,13,12,5,0,0,0,21/09/2020 6:44:01
3,5,14,-2,-10,-1,3,0,21/09/2020 6:44:01
3,5,14,-2,-10,-1,3,0,21/09/2020 6:44:01
4,6,24,24,-10,44,15,0,21/09/2020 6:44:01
-1,4,16,22,-3,-66,-11,0,21/09/2020 6:44:01
-2,-4,-24,-13,-5,-38,-10,0,21/09/2020 6:44:01
-2,-1,8,-6,7,-9,-1,0,21/09/2020 6:44:01
-5,-5,-3,-16,-6,2,-2,0,21/09/2020 6:44:01
2,10,28,-27,-9,19,4,0,21/09/2020 6:44:01
-5,-7,-4,30,-3,12,1,0,21/09/2020 6:44:01
-1,1,-2,-10,-6,3,-4,0,21/09/2020 6:44:01
-1,0,-14,-59,-14,36,10,0,21/09/2020 6:44:01
-4,-5,12,-6,11,-14,-4,0,21/09/2020 6:44:01
0,-6,-18,5,12,3,-1,0,21/09/2020 6:44:01
-2,-1,4,38,16,4,3,0,21/09/2020 6:44:01
1,2,11,10,13,15,5,0,21/09/2020 6:44:01
-1,-2,-2,-14,-17,-10,-2,0,21/09/2020 6:44:01
3,2,2,45,-1,-2,2,0,21/09/2020 6:44:01
2,4,10,14,0,-3,2,0,21/09/2020 6:44:01
0,-5,-6,-12,4,-8,-1,0,21/09/2020 6:44:01
0,4,5,29,2,1,-3,0,21/09/2020 6:44:01
5,11,3,-8,4,1,14,0,21/09/2020 6:44:01
-52,-12,-4,124,3,-37,-109,0,21/09/2020 6:44:01
22,0,1,-90,-39,0,44,0,21/09/2020 6:44:01
9,-1,-12,-3,14,5,31,0,21/09/2020 6:44:01
-10,-2,-2,-2,7,5,15,0,21/09/2020 6:44:01
-4,5,4,3,-3,11,-5,0,21/09/2020 6:44:01
18,2,2,16,44,16,22,0,21/09/2020 6:44:02
53,8,-7,-9,1,-2,0,0,21/09/2020 6:44:02
17,-4,-1,1,9,-19,-15,0,21/09/2020 6:44:02
-56,-9,3,5,41,-8,-4,0,21/09/2020 6:44:02
16,-3,0,-1,64,21,11,0,21/09/2020 6:44:02
-7,5,4,12,39,-5,7,0,21/09/2020 6:44:02
-8,1,4,2,18,-11,1,0,21/09/2020 6:44:02
1,-1,0,9,-15,-48,-10,0,21/09/2020 6:44:02
17,1,-5,1,-29,10,-17,0,21/09/2020 6:44:02
16,7,8,22,31,45,29,0,21/09/2020 6:44:02
-18,4,10,14,51,42,7,0,21/09/2020 6:44:02
-15,-3,-1,-10,-25,-22,-10,0,21/09/2020 6:44:02
-6,-8,-21,5,-23,-1,7,0,21/09/2020 6:44:02
-4,8,20,-17,22,6,-7,0,21/09/2020 6:44:02
-26,-10,-4,9,31,1,-19,0,21/09/2020 6:44:02
27,9,15,2,11,10,19,0,21/09/2020 6:44:02
-26,-11,-19,9,58,20,-14,0,21/09/2020 6:44:02
18,24,8,3,6,14,34,0,21/09/2020 6:44:02
27,-28,0,14,-76,-13,3,0,21/09/2020 6:44:02
23,-6,6,17,-6,-1,9,0,21/09/2020 6:44:02
24,6,4,-1,12,-8,10,0,21/09/2020 6:44:02
-17,-2,-9,-11,-6,-13,-18,0,21/09/2020 6:44:02
-46,-5,-4,-15,-24,-2,-7,0,21/09/2020 6:44:02
-19,6,4,0,-66,-31,-7,0,21/09/2020 6:44:02
-27,2,-4,-13,5,-20,-6,0,21/09/2020 6:44:02
-4,4,-3,-15,31,40,11,0,21/09/2020 6:44:02
-1,5,4,3,-41,38,39,0,21/09/2020 6:44:02
0,0,0,0,0,0,0,0,21/09/2020 6:46:41
5,7,11,11,-28,-17,4,0,21/09/2020 6:46:41
-1,-1,0,-8,13,4,1,0,21/09/2020 6:46:42
-2,-1,-2,-6,15,13,0,0,21/09/2020 6:46:42
1,0,1,-1,15,2,-1,0,21/09/2020 6:46:42
-2,-4,-6,12,45,12,2,0,21/09/2020 6:46:42
2,2,-3,9,15,6,1,0,21/09/2020 6:46:42
-2,0,4,6,34,17,1,0,21/09/2020 6:46:42
2,1,4,6,44,13,-1,0,21/09/2020 6:46:42
0,2,2,5,-19,-5,4,0,21/09/2020 6:46:42
0,-1,-1,-15,-27,-1,-1,0,21/09/2020 6:46:42
2,0,-1,-2,0,-4,2,0,21/09/2020 6:46:42
-1,1,-2,9,7,-21,-7,0,21/09/2020 6:46:42
2,3,5,13,-6,10,2,0,21/09/2020 6:46:42
-2,-3,-4,-5,-1,-1,-3,0,21/09/2020 6:46:42
1,1,1,-1,-39,-12,0,0,21/09/2020 6:46:42
-1,-2,2,-2,2,0,0,0,21/09/2020 6:46:42
-2,0,1,-6,0,-5,-3,0,21/09/2020 6:46:43
0,0,4,6,14,5,1,0,21/09/2020 6:46:43
0,2,5,14,23,8,4,0,21/09/2020 6:46:43
-2,-2,0,-2,7,-6,-3,0,21/09/2020 6:46:43
1,2,-1,3,-16,-1,1,0,21/09/2020 6:46:43
1,1,-4,2,10,6,2,0,21/09/2020 6:46:43
1,0,-3,8,15,-1,0,0,21/09/2020 6:46:43
-3,-1,-3,-2,-14,-1,-3,0,21/09/2020 6:46:43
0,-1,-2,6,-31,-12,5,0,21/09/2020 6:46:43
-1,-1,0,-16,-28,-3,-2,0,21/09/2020 6:46:43
1,3,3,10,31,15,5,0,21/09/2020 6:46:43
-2,-1,0,-5,-34,-14,-5,0,21/09/2020 6:46:43
3,0,-3,-6,4,6,0,0,21/09/2020 6:46:43
0,0,0,-7,-31,-15,-5,0,21/09/2020 6:46:43
1,-1,2,5,30,6,2,0,21/09/2020 6:46:43
1,1,-9,20,28,5,2,0,21/09/2020 6:46:43
-1,1,3,0,-9,-3,0,0,21/09/2020 6:46:43
-3,-2,-2,4,22,6,-2,0,21/09/2020 6:46:43
0,0,2,-8,-41,-9,-1,0,21/09/2020 6:46:43
-1,1,0,5,20,3,1,0,21/09/2020 6:46:43
2,-2,2,-4,-32,-11,-4,0,21/09/2020 6:46:43
-2,-5,-4,-10,-27,-6,-3,0,21/09/2020 6:46:43
0,1,2,2,14,6,1,0,21/09/2020 6:46:43
1,0,2,6,-6,-1,1,0,21/09/2020 6:46:43
1,0,-1,4,34,13,8,0,21/09/2020 6:46:43
-3,-2,-2,-2,-41,-15,-13,0,21/09/2020 6:46:43
0,0,0,-3,7,-12,-1,0,21/09/2020 6:46:43
-2,-1,-2,5,31,41,9,0,21/09/2020 6:46:43
-1,0,-2,2,29,-20,-11,0,21/09/2020 6:46:43
-1,0,-2,2,29,-20,-11,0,21/09/2020 6:46:43
-3,-1,1,0,-9,-1,-7,0,21/09/2020 6:46:43
3,3,3,1,11,-10,8,0,21/09/2020 6:46:43
2,3,-6,4,28,7,7,0,21/09/2020 6:46:43
-5,-7,-7,-11,-63,1,-2,0,21/09/2020 6:46:43
2,0,-2,-9,7,3,-5,0,21/09/2020 6:46:43
6,0,3,-3,10,38,6,0,21/09/2020 6:46:43
6,0,3,-3,10,38,6,0,21/09/2020 6:46:43
-16,-10,13,-11,-27,-30,-13,0,21/09/2020 6:46:43
-7,-7,-31,-18,-10,-19,-14,0,21/09/2020 6:46:43
0,4,21,13,2,-30,-15,0,21/09/2020 6:46:43
-5,-11,-34,-20,40,91,16,0,21/09/2020 6:46:43
0,4,17,12,20,-8,-14,0,21/09/2020 6:46:43
-6,-8,-6,-9,-2,7,-7,0,21/09/2020 6:46:43
-6,-8,-6,-9,-2,7,-7,0,21/09/2020 6:46:43
-4,0,-7,-3,-43,-16,-3,0,21/09/2020 6:46:43
-5,-6,-18,-11,-22,-20,-13,0,21/09/2020 6:46:43
-4,-10,-27,-4,2,-25,-12,0,21/09/2020 6:46:43
4,4,0,20,29,18,17,0,21/09/2020 6:46:43
-5,-11,37,14,8,21,2,0,21/09/2020 6:46:43
-7,-12,-38,-29,-74,-30,-15,0,21/09/2020 6:46:43
-7,-12,-38,-29,-74,-30,-15,0,21/09/2020 6:46:43
0,2,-10,-20,21,23,7,0,21/09/2020 6:46:43
-2,3,-10,-13,23,7,1,0,21/09/2020 6:46:43
12,-1,0,7,-17,10,-2,0,21/09/2020 6:46:43
12,-1,0,7,-17,10,-2,0,21/09/2020 6:46:43
-10,-28,7,-14,-32,-71,-36,0,21/09/2020 6:46:43
-10,-28,7,-14,-32,-71,-36,0,21/09/2020 6:46:43
-9,26,72,12,-5,66,1,0,21/09/2020 6:46:43
-7,-4,-15,-8,6,6,4,0,21/09/2020 6:46:43
-6,6,19,13,36,84,37,0,21/09/2020 6:46:43
11,-9,-9,10,13,-50,-27,0,21/09/2020 6:46:43
31,42,21,9,-10,13,31,0,21/09/2020 6:46:43
-18,-20,23,-10,9,-19,-9,0,21/09/2020 6:46:43
-22,8,-56,-12,4,39,21,0,21/09/2020 6:46:43
-22,8,-56,-12,4,39,21,0,21/09/2020 6:46:43
-15,-40,-79,-1,4,-23,-5,0,21/09/2020 6:46:43
0,-1,-60,11,5,-78,-48,0,21/09/2020 6:46:43
16,28,-30,3,-33,41,78,0,21/09/2020 6:46:44
16,28,-30,3,-33,41,78,0,21/09/2020 6:46:44
0,-2,94,3,14,0,-28,0,21/09/2020 6:46:44
-27,5,65,4,9,2,-7,0,21/09/2020 6:46:44
19,27,72,25,36,-17,-27,0,21/09/2020 6:46:44
8,1,48,5,-13,-23,-3,0,21/09/2020 6:46:44
11,13,24,0,-7,9,-4,0,21/09/2020 6:46:44
59,-1,-76,-2,10,3,-11,0,21/09/2020 6:46:44
59,-1,-76,-2,10,3,-11,0,21/09/2020 6:46:44
8,2,-34,-14,1,16,21,0,21/09/2020 6:46:44
13,11,51,1,9,44,27,0,21/09/2020 6:46:44
-8,6,40,11,1,-19,-25,0,21/09/2020 6:46:44
-20,-7,9,6,1,-99,-57,0,21/09/2020 6:46:44
-19,-2,2,-31,-9,-16,5,0,21/09/2020 6:46:44
-16,13,8,-19,1,-10,-22,0,21/09/2020 6:46:44
19,7,-61,-14,5,59,25,0,21/09/2020 6:46:44
3,-7,-37,11,28,-33,1,0,21/09/2020 6:46:44
33,33,60,31,-9,-14,7,0,21/09/2020 6:46:44
-38,-18,45,10,-18,24,9,0,21/09/2020 6:46:44
20,-23,-31,11,-9,-32,-4,0,21/09/2020 6:46:44
-8,7,30,-31,0,-4,0,0,21/09/2020 6:46:44
-8,7,30,-31,0,-4,0,0,21/09/2020 6:46:44
-21,-15,3,13,-2,-30,-24,0,21/09/2020 6:46:44
17,15,-35,6,17,75,51,0,21/09/2020 6:46:44
4,-8,-19,-4,-12,-37,-4,0,21/09/2020 6:46:44
22,11,61,25,8,-16,4,0,21/09/2020 6:46:44
6,6,3,0,20,24,18,0,21/09/2020 6:46:44
-19,-17,-43,-20,10,85,1,0,21/09/2020 6:46:44
2,2,58,18,-11,-54,-21,0,21/09/2020 6:46:44
-10,-20,-14,-31,-12,-40,-9,0,21/09/2020 6:46:44
-9,64,72,24,12,29,-13,0,21/09/2020 6:46:44
-23,-7,-30,-7,12,-17,12,0,21/09/2020 6:46:44
-15,-49,-29,0,79,68,14,0,21/09/2020 6:46:44
8,-4,-9,-3,-26,-7,20,0,21/09/2020 6:46:44
-7,-15,-94,-18,-6,2,6,0,21/09/2020 6:46:44
32,6,-29,0,28,70,22,0,21/09/2020 6:46:44
-19,-23,-38,-21,-9,-32,-8,0,21/09/2020 6:46:44
-7,-13,-16,7,17,-51,-14,0,21/09/2020 6:46:44
-15,-23,-42,6,8,-79,-20,0,21/09/2020 6:46:44
40,18,-5,5,-7,-14,-3,0,21/09/2020 6:46:44
40,18,-5,5,-7,-14,-3,0,21/09/2020 6:46:44
-19,-12,-18,-28,-10,35,-1,0,21/09/2020 6:46:44
2,-21,-100,-21,-35,26,7,0,21/09/2020 6:46:44
14,28,104,-20,-37,69,37,0,21/09/2020 6:46:44
1,-32,-25,25,1,-61,-15,0,21/09/2020 6:46:44
-16,-34,-99,3,23,-56,-29,0,21/09/2020 6:46:44
3,0,-62,-14,5,-41,-8,0,21/09/2020 6:46:44
15,57,-32,-12,18,88,25,0,21/09/2020 6:46:44
-30,0,-40,11,40,-50,-34,0,21/09/2020 6:46:44
11,21,41,-3,6,-45,5,0,21/09/2020 6:46:44
8,25,50,13,-33,-74,-13,0,21/09/2020 6:46:45
12,19,16,7,33,11,11,0,21/09/2020 6:46:45
-14,-10,-7,21,-28,18,8,0,21/09/2020 6:46:45
-25,-29,-30,-26,-33,-60,-16,0,21/09/2020 6:46:45
22,18,-49,-9,25,12,1,0,21/09/2020 6:46:45
-8,-14,-16,5,-29,-34,6,0,21/09/2020 6:46:45
-42,0,15,-1,-50,-11,10,0,21/09/2020 6:46:45
10,-5,-44,-13,6,-4,-16,0,21/09/2020 6:46:45
6,25,48,15,11,-15,-17,0,21/09/2020 6:46:45
6,25,48,15,11,-15,-17,0,21/09/2020 6:46:45
1,-2,15,27,16,34,10,0,21/09/2020 6:46:45
11,1,22,-9,-2,28,23,0,21/09/2020 6:46:45
15,11,23,1,3,36,21,0,21/09/2020 6:46:45
-7,-16,-32,-4,4,15,2,0,21/09/2020 6:46:45
4,-2,-7,2,-9,-21,-12,0,21/09/2020 6:46:45
7,3,-15,1,28,59,15,0,21/09/2020 6:46:45
-3,-7,-9,-2,-31,9,0,0,21/09/2020 6:46:45
2,5,13,2,-4,-3,2,0,21/09/2020 6:46:45
8,0,-7,-15,-50,-45,-6,0,21/09/2020 6:46:45
-2,-4,-5,-18,31,13,3,0,21/09/2020 6:46:45
-7,-4,-2,3,44,1,-9,0,21/09/2020 6:46:45
-2,-1,-1,6,-13,11,3,0,21/09/2020 6:46:45
-4,-2,3,-14,-8,-16,-4,0,21/09/2020 6:46:45
0,0,1,22,17,6,1,0,21/09/2020 6:46:45
-1,-2,-1,18,-14,-6,-1,0,21/09/2020 6:46:45
13,1,2,27,55,-3,-12,0,21/09/2020 6:46:45
0,-9,-7,-17,40,3,10,0,21/09/2020 6:46:45
-27,-2,-3,5,48,18,9,0,21/09/2020 6:46:45
-6,-1,-1,-17,-44,20,18,0,21/09/2020 6:46:45
0,3,8,26,111,59,15,0,21/09/2020 6:46:45
10,-4,-7,-13,-26,0,-17,0,21/09/2020 6:46:45
7,1,0,8,-22,-32,-5,0,21/09/2020 6:46:45
-36,-10,-4,1,18,6,4,0,21/09/2020 6:46:45
-7,3,7,10,35,16,-1,0,21/09/2020 6:46:45
9,-6,-11,-7,-35,-53,-16,0,21/09/2020 6:46:45
5,0,3,-4,-14,5,-8,0,21/09/2020 6:46:45
10,3,-1,-8,-60,-44,-15,0,21/09/2020 6:46:45
10,1,2,2,63,64,16,0,21/09/2020 6:46:45
4,1,-3,-6,-56,-11,16,0,21/09/2020 6:46:45
6,-3,-5,13,88,75,7,0,21/09/2020 6:46:45
-13,0,2,15,29,42,18,0,21/09/2020 6:46:45
22,1,-4,-5,2,-10,-5,0,21/09/2020 6:46:45
11,-2,-6,-16,-24,-2,-13,0,21/09/2020 6:46:45
-7,0,0,-6,-18,-2,-2,0,21/09/2020 6:46:45
-25,-4,6,0,17,18,1,0,21/09/2020 6:46:45
-25,-4,6,0,17,18,1,0,21/09/2020 6:46:45
12,1,-7,-6,-47,-23,-5,0,21/09/2020 6:46:45
-3,-2,-8,-13,-39,-27,-4,0,21/09/2020 6:46:45
31,4,3,9,-22,-19,-2,0,21/09/2020 6:46:45
-21,8,9,-4,4,0,-10,0,21/09/2020 6:46:45
8,4,9,17,36,-19,4,0,21/09/2020 6:46:45
-2,-1,3,0,46,3,5,0,21/09/2020 6:46:45
-29,-4,-2,-1,11,20,7,0,21/09/2020 6:46:45
0,2,4,4,-42,-30,-6,0,21/09/2020 6:46:45
-6,-9,-11,-3,-13,-14,-9,0,21/09/2020 6:46:45
4,2,-1,-1,-10,-14,1,0,21/09/2020 6:46:45
15,-11,-21,-36,-26,8,-2,0,21/09/2020 6:46:45
-3,3,3,10,72,52,8,0,21/09/2020 6:46:45
-3,3,3,10,72,52,8,0,21/09/2020 6:46:45
4,-5,-1,0,39,16,-2,0,21/09/2020 6:46:46
-5,0,3,20,20,22,11,0,21/09/2020 6:46:46
5,3,3,7,12,-5,-9,0,21/09/2020 6:46:46
7,-6,-15,-12,-16,-4,-11,0,21/09/2020 6:46:46
-11,-2,2,-11,-50,-13,-5,0,21/09/2020 6:46:46
-11,-1,0,-2,22,-3,-5,0,21/09/2020 6:46:46
-3,3,4,-1,-33,-14,6,0,21/09/2020 6:46:46
-2,0,0,-4,-2,-17,-8,0,21/09/2020 6:46:46
-20,0,1,15,10,-10,-1,0,21/09/2020 6:46:46
-15,-6,-1,2,42,2,-8,0,21/09/2020 6:46:46
-5,-2,-4,-3,-11,-5,1,0,21/09/2020 6:46:46
12,1,-1,3,-31,-2,-1,0,21/09/2020 6:46:46
-1,-2,0,-5,-32,-18,0,0,21/09/2020 6:46:46
-1,-2,0,-5,-32,-18,0,0,21/09/2020 6:46:46
-15,-2,0,-4,52,17,5,0,21/09/2020 6:46:46
2,2,-5,-1,25,9,1,0,21/09/2020 6:46:46
-4,-4,-2,-7,-8,13,-12,0,21/09/2020 6:46:46
-4,-4,-2,-7,-8,13,-12,0,21/09/2020 6:46:46
10,0,1,0,33,22,7,0,21/09/2020 6:46:46
6,0,1,-9,-46,-23,-4,0,21/09/2020 6:46:46
0,-2,2,13,67,35,11,0,21/09/2020 6:46:46
-2,2,0,8,6,-15,-4,0,21/09/2020 6:46:46
-1,-3,-3,-12,-41,-28,-3,0,21/09/2020 6:46:46
4,-3,-6,-18,-35,-16,-2,0,21/09/2020 6:46:46
-1,1,0,2,-31,1,0,0,21/09/2020 6:46:46
7,2,2,9,39,31,8,0,21/09/2020 6:46:46
-6,-5,-4,-11,-32,-16,-10,0,21/09/2020 6:46:46
-1,0,-1,0,-23,-5,2,0,21/09/2020 6:46:46
-2,-1,-1,-3,-21,-2,-3,0,21/09/2020 6:46:46
-6,-1,-3,-2,4,-15,-5,0,21/09/2020 6:46:46
1,-2,-4,-1,57,-1,-8,0,21/09/2020 6:46:46
0,0,0,-12,-73,5,0,0,21/09/2020 6:46:46
4,4,4,8,-4,-3,2,0,21/09/2020 6:46:46
-7,1,3,-1,-9,0,-5,0,21/09/2020 6:46:46
1,-2,1,6,70,23,6,0,21/09/2020 6:46:46
0,-1,-3,1,5,13,-3,0,21/09/2020 6:46:46
-3,2,3,9,38,14,-2,0,21/09/2020 6:46:46
-2,0,0,-8,-77,-10,3,0,21/09/2020 6:46:46
-1,1,0,2,-28,-11,-4,0,21/09/2020 6:46:46
-4,-3,-4,6,34,7,-1,0,21/09/2020 6:46:46
0,2,2,-2,-35,-13,-3,0,21/09/2020 6:46:46
0,-1,-1,-3,-5,-1,-5,0,21/09/2020 6:46:46
-15,-5,-1,1,4,2,-2,0,21/09/2020 6:46:46
0,0,-2,-8,-27,-5,-1,0,21/09/2020 6:46:46
14,1,-2,4,23,22,7,0,21/09/2020 6:46:46
-2,-1,1,-2,-31,-7,1,0,21/09/2020 6:46:46
12,1,-3,-7,-37,-14,-3,0,21/09/2020 6:46:47
-20,-4,0,2,3,7,2,0,21/09/2020 6:46:47
-1,1,4,-10,-23,-9,-4,0,21/09/2020 6:46:47
2,0,2,14,5,-1,-1,0,21/09/2020 6:46:47
-5,-5,-4,2,-15,-11,-10,0,21/09/2020 6:46:47
10,1,0,-2,-25,-17,-7,0,21/09/2020 6:46:47
16,6,11,7,3,-1,-1,0,21/09/2020 6:46:47
2,6,3,-4,-9,-2,4,0,21/09/2020 6:46:47
-1,-2,-3,-5,-7,7,4,0,21/09/2020 6:46:47
17,2,-6,-14,-34,-25,-7,0,21/09/2020 6:46:47
0,-1,2,4,15,4,7,0,21/09/2020 6:46:47
3,0,-2,2,11,-7,-4,0,21/09/2020 6:46:47
-13,-5,-3,6,51,-3,-7,0,21/09/2020 6:46:47
3,2,1,-3,-18,4,1,0,21/09/2020 6:46:47
1,-1,-1,5,39,-8,-4,0,21/09/2020 6:46:47
0,-1,1,9,18,11,4,0,21/09/2020 6:46:47
4,-3,-7,-19,-55,-19,-4,0,21/09/2020 6:46:47
15,4,5,5,22,18,13,0,21/09/2020 6:46:47
-8,-2,-4,-23,2,3,0,0,21/09/2020 6:46:47
3,2,0,1,42,10,-1,0,21/09/2020 6:46:47
0,4,1,3,3,-3,4,0,21/09/2020 6:46:47
-7,1,3,5,18,-4,0,0,21/09/2020 6:46:47
7,1,-3,6,-3,8,1,0,21/09/2020 6:46:47
2,-2,1,14,39,30,1,0,21/09/2020 6:46:47
-3,1,4,11,44,19,6,0,21/09/2020 6:46:47
-3,1,4,11,44,19,6,0,21/09/2020 6:46:47
24,1,2,7,31,13,3,0,21/09/2020 6:46:47
-19,-2,1,-2,-35,-8,0,0,21/09/2020 6:46:47
-5,-1,0,-10,-72,-12,4,0,21/09/2020 6:46:47
7,0,-13,-8,-38,-11,4,0,21/09/2020 6:46:47
-10,-3,0,6,-11,-19,-5,0,21/09/2020 6:46:47
7,1,4,5,-6,-5,-7,0,21/09/2020 6:46:47
2,2,4,-1,12,3,4,0,21/09/2020 6:46:47
2,2,4,-1,12,3,4,0,21/09/2020 6:46:47
-8,0,-2,-8,-51,4,2,0,21/09/2020 6:46:47
-2,-5,-8,-4,1,-4,-1,0,21/09/2020 6:46:47
-7,2,3,-1,1,-2,-1,0,21/09/2020 6:46:47
10,2,6,7,-14,-10,7,0,21/09/2020 6:46:47
6,1,5,-8,-24,-9,-5,0,21/09/2020 6:46:47
-29,-8,-9,-15,9,-12,-19,0,21/09/2020 6:46:47
-29,-8,-9,-15,9,-12,-19,0,21/09/2020 6:46:47
4,12,18,11,9,-4,2,0,21/09/2020 6:46:47
27,-2,3,-2,-16,-10,-3,0,21/09/2020 6:46:47
26,-8,-5,0,3,13,15,0,21/09/2020 6:46:47
-19,-2,2,10,22,3,5,0,21/09/2020 6:46:47
-5,6,4,12,31,18,-1,0,21/09/2020 6:46:47
9,4,5,5,-21,2,8,0,21/09/2020 6:46:47
1,7,9,20,28,11,1,0,21/09/2020 6:46:47
-13,-1,1,2,-17,-7,-7,0,21/09/2020 6:46:47
6,7,5,18,37,18,9,0,21/09/2020 6:46:47
0,0,3,3,-2,13,1,0,21/09/2020 6:46:47
8,4,-1,8,-12,-3,3,0,21/09/2020 6:46:47
-1,-6,-7,-11,-19,-13,-5,0,21/09/2020 6:46:47
-2,-1,-9,1,30,-1,-2,0,21/09/2020 6:46:47
-11,-2,6,3,2,-12,-9,0,21/09/2020 6:46:47
-1,-2,0,-6,-11,-6,2,0,21/09/2020 6:46:47
-8,0,-4,-8,-36,-13,1,0,21/09/2020 6:46:47
-8,0,-4,-8,-36,-13,1,0,21/09/2020 6:46:47
-22,-23,-14,-22,-81,-18,-7,0,21/09/2020 6:46:47
-17,4,-9,-6,25,19,-1,0,21/09/2020 6:46:48
1,5,-2,4,37,-2,-4,0,21/09/2020 6:46:48
-7,2,7,-7,0,1,-2,0,21/09/2020 6:46:48
32,5,3,10,21,1,3,0,21/09/2020 6:46:48
12,0,-9,16,36,20,10,0,21/09/2020 6:46:48
26,13,11,17,10,18,12,0,21/09/2020 6:46:48
26,13,11,17,10,18,12,0,21/09/2020 6:46:48
-5,-1,3,-20,-102,-26,-3,0,21/09/2020 6:46:48
6,14,8,13,70,27,-1,0,21/09/2020 6:46:48
10,1,7,-1,11,5,3,0,21/09/2020 6:46:48
6,-3,-3,-2,5,-2,-5,0,21/09/2020 6:46:48
-8,-5,-1,-9,-9,-9,-1,0,21/09/2020 6:46:48
-11,-1,10,16,84,43,11,0,21/09/2020 6:46:48
0,-2,4,-3,-29,-14,3,0,21/09/2020 6:46:48
0,-2,4,-3,-29,-14,3,0,21/09/2020 6:46:48
5,4,3,-17,-40,-14,-7,0,21/09/2020 6:46:48
-11,-2,-1,-6,-34,-15,-9,0,21/09/2020 6:46:48
6,5,7,4,5,-2,2,0,21/09/2020 6:46:48
-5,-3,-6,3,-40,-18,-2,0,21/09/2020 6:46:48
1,5,2,4,-4,2,8,0,21/09/2020 6:46:48
6,1,8,21,8,8,8,0,21/09/2020 6:46:48
-28,-3,-2,-1,-9,-14,-2,0,21/09/2020 6:46:48
13,-9,-12,-14,-50,-28,-8,0,21/09/2020 6:46:48
-2,-4,-2,2,69,26,-7,0,21/09/2020 6:46:48
-52,-3,0,-8,31,16,-2,0,21/09/2020 6:46:48
-8,-3,-1,-3,10,9,6,0,21/09/2020 6:46:48
-11,-1,6,-14,36,33,-7,0,21/09/2020 6:46:48
-10,1,2,0,-10,-14,-5,0,21/09/2020 6:46:48
-33,-9,-2,-3,-11,-22,0,0,21/09/2020 6:46:48
0,2,3,-2,-3,-3,8,0,21/09/2020 6:46:48
-3,-25,-3,-1,25,9,-6,0,21/09/2020 6:46:48
-47,-4,5,3,-16,-3,2,0,21/09/2020 6:46:48
1,2,4,5,9,5,4,0,21/09/2020 6:46:48
52,7,-20,-3,-28,6,13,0,21/09/2020 6:46:48
16,-1,-4,18,41,9,-7,0,21/09/2020 6:46:48
-11,-9,-19,17,-13,-3,2,0,21/09/2020 6:46:48
-27,4,-2,35,65,30,5,0,21/09/2020 6:46:48
-12,-4,4,-5,41,15,1,0,21/09/2020 6:46:48
17,0,0,-2,6,8,2,0,21/09/2020 6:46:48
-7,1,5,-2,-43,33,25,0,21/09/2020 6:46:48
3,-1,-2,3,16,12,0,0,21/09/2020 6:46:48
-10,-5,-3,-1,-31,-17,-5,0,21/09/2020 6:46:48
2,1,0,-1,-9,2,3,0,21/09/2020 6:46:48
-1,-5,0,-2,18,24,-3,0,21/09/2020 6:46:58
-1,-3,2,2,1,-1,-8,0,21/09/2020 6:46:59
0,1,6,6,2,6,-4,0,21/09/2020 6:46:59
1,0,1,-3,1,-4,-5,0,21/09/2020 6:46:59
-1,0,0,-1,-6,-9,-1,0,21/09/2020 6:46:59
2,-1,-4,-3,-5,-9,-3,0,21/09/2020 6:46:59
0,0,-10,-1,-3,-6,3,0,21/09/2020 6:46:59
1,3,10,3,5,-13,1,0,21/09/2020 6:46:59
-2,0,3,0,10,10,3,0,21/09/2020 6:47:00
1,-5,2,2,9,13,19,0,21/09/2020 6:47:00
-32,-3,-7,-6,35,-10,-9,0,21/09/2020 6:47:00
49,-6,-10,-29,-111,-66,-31,0,21/09/2020 6:47:00
-20,-11,1,-14,-15,18,6,0,21/09/2020 6:47:00
-16,-9,0,37,81,-7,0,0,21/09/2020 6:47:00
-63,0,3,-6,-64,9,8,0,21/09/2020 6:47:00
35,-3,-6,-1,-21,-10,-16,0,21/09/2020 6:47:00
1,-1,25,37,84,23,-5,0,21/09/2020 6:47:00
-60,-5,1,6,-11,-10,-2,0,21/09/2020 6:47:00
7,-2,-9,-11,-4,-16,-1,0,21/09/2020 6:47:00
6,-3,-3,8,-21,27,21,0,21/09/2020 6:47:00
26,3,-14,-44,-78,-18,-5,0,21/09/2020 6:47:00
1,1,-1,-1,-1,2,3,0,21/09/2020 6:47:07
-2,0,-1,-1,1,0,-1,0,21/09/2020 6:47:07
-1,-2,-1,-2,2,1,-1,0,21/09/2020 6:47:08
-1,-1,-1,-2,-2,-4,-1,0,21/09/2020 6:47:08
-3,-1,-1,-1,-3,-1,0,0,21/09/2020 6:47:08
-1,-1,0,-2,-2,-1,-1,0,21/09/2020 6:47:08
-1,0,-2,0,0,0,0,0,21/09/2020 6:47:08
1,-1,-2,-1,0,1,-1,0,21/09/2020 6:47:08
-1,1,1,0,-4,-4,-3,0,21/09/2020 6:47:08
0,-1,-1,0,1,-1,1,0,21/09/2020 6:47:08
-1,0,-2,-1,1,0,0,0,21/09/2020 6:47:08
0,0,0,1,0,0,1,0,21/09/2020 6:47:08
1,0,-1,-1,-3,-4,-2,0,21/09/2020 6:47:08
0,0,0,-1,1,1,-2,0,21/09/2020 6:47:08
-1,0,-1,0,0,0,1,0,21/09/2020 6:47:08
0,-1,0,-1,-1,-2,-1,0,21/09/2020 6:47:08
0,-2,1,0,1,0,-1,0,21/09/2020 6:47:08
-1,1,-1,-1,-1,3,-3,0,21/09/2020 6:47:08
-1,-2,-1,-1,0,1,0,0,21/09/2020 6:47:08
-2,-1,0,1,1,-2,-1,0,21/09/2020 6:47:08
-3,0,-1,1,-1,-3,-1,0,21/09/2020 6:47:08
-1,1,0,-1,0,0,0,0,21/09/2020 6:47:08
-1,0,1,0,1,0,-1,0,21/09/2020 6:47:08
0,-1,-1,-1,-1,-1,-1,0,21/09/2020 6:47:08
-1,-2,-1,1,0,1,-2,0,21/09/2020 6:47:08
-1,0,0,-2,0,3,1,0,21/09/2020 6:47:08
-2,2,-1,-2,-1,-1,-1,0,21/09/2020 6:47:08
-1,-1,1,-2,1,2,0,0,21/09/2020 6:47:08
0,-1,-2,-1,-2,-2,0,0,21/09/2020 6:47:08
1,-1,-2,-2,-3,1,0,0,21/09/2020 6:47:08
-1,0,-2,-1,-4,-3,-1,0,21/09/2020 6:47:08
-1,-2,0,-1,-1,0,-1,0,21/09/2020 6:47:08
-1,0,1,-2,0,-4,0,0,21/09/2020 6:47:09
-3,-2,0,-2,1,3,0,0,21/09/2020 6:47:09
-1,0,0,1,-3,-1,-2,0,21/09/2020 6:47:09
-1,-2,-1,0,-2,1,0,0,21/09/2020 6:47:09
0,-1,-1,0,1,1,0,0,21/09/2020 6:47:09
2,-2,-1,1,1,-2,-1,0,21/09/2020 6:47:09
1,-1,-2,-1,-2,-2,0,0,21/09/2020 6:47:09
-2,-1,0,0,1,-1,-3,0,21/09/2020 6:47:09
23,24,-4,25,30,11,22,0,21/09/2020 6:47:14
-7,-43,36,25,101,58,-37,0,21/09/2020 6:47:14
22,-10,0,-19,-31,-77,-10,0,21/09/2020 6:47:15
25,8,29,80,-7,72,-30,0,21/09/2020 6:47:15
-24,-18,4,-9,6,-23,-59,0,21/09/2020 6:47:15
-6,-16,20,6,9,-15,-55,0,21/09/2020 6:47:15
-5,-9,-77,-11,0,-4,5,0,21/09/2020 6:47:15
17,17,48,23,-39,-87,-35,0,21/09/2020 6:47:15
-14,-13,-15,-17,8,-20,21,0,21/09/2020 6:47:15
56,79,65,-18,13,57,12,0,21/09/2020 6:47:15
-34,-27,15,10,22,4,-41,0,21/09/2020 6:47:15
24,48,54,80,61,83,10,0,21/09/2020 6:47:15
-9,21,34,38,24,-24,-12,0,21/09/2020 6:47:15
7,-10,-33,-24,1,7,50,0,21/09/2020 6:47:15
36,19,-64,-2,-1,-29,61,0,21/09/2020 6:47:15
-22,-12,-42,3,30,41,26,0,21/09/2020 6:47:15
-21,-23,0,49,25,12,19,0,21/09/2020 6:47:15
16,-1,23,-15,-10,-37,-9,0,21/09/2020 6:47:15
-26,-5,-37,-46,13,-22,8,0,21/09/2020 6:47:15
50,-18,8,31,-11,14,-40,0,21/09/2020 6:47:15
13,52,64,-3,57,59,88,0,21/09/2020 6:47:15
-35,-20,-17,10,-7,-38,-34,0,21/09/2020 6:47:15
2,3,-34,-29,-28,-89,-82,0,21/09/2020 6:47:15
-43,-9,-12,4,-1,-11,-2,0,21/09/2020 6:47:15
46,-17,-10,27,-34,-14,33,0,21/09/2020 6:47:15
-14,62,60,55,38,-20,7,0,21/09/2020 6:47:15
-32,-56,-74,-53,8,105,49,0,21/09/2020 6:47:15
-32,27,13,9,-29,-43,1,0,21/09/2020 6:47:15
5,-25,-48,-3,8,11,21,0,21/09/2020 6:47:15
-11,1,37,9,-2,-11,19,0,21/09/2020 6:47:15
-11,1,37,9,-2,-11,19,0,21/09/2020 6:47:15
30,32,-8,-65,-2,-14,-22,0,21/09/2020 6:47:15
20,12,7,29,-21,65,9,0,21/09/2020 6:47:15
-42,-48,-48,13,13,-8,-4,0,21/09/2020 6:47:15
1,0,-6,17,24,0,-42,0,21/09/2020 6:47:15
-4,-11,-35,-23,-33,-58,-48,0,21/09/2020 6:47:15
2,-27,20,37,36,54,25,0,21/09/2020 6:47:15
-9,-14,-32,29,-6,-22,-23,0,21/09/2020 6:47:15
-34,-37,2,-19,-2,24,-12,0,21/09/2020 6:47:15
-44,-44,-100,26,7,35,7,0,21/09/2020 6:47:15
1,0,1,-13,-3,-49,-37,0,21/09/2020 6:47:15
-26,-16,-60,30,80,18,-14,0,21/09/2020 6:47:15
3,42,27,-5,7,11,4,0,21/09/2020 6:47:15
-8,-13,7,26,-39,-21,-12,0,21/09/2020 6:47:15
12,6,-3,-42,-8,4,-16,0,21/09/2020 6:47:15
-7,-30,10,9,-30,-23,22,0,21/09/2020 6:47:15
-28,-39,-12,-32,-12,26,-3,0,21/09/2020 6:47:15
-13,8,16,9,-10,-19,-22,0,21/09/2020 6:47:15
-37,-7,4,6,-14,-3,-19,0,21/09/2020 6:47:15
47,19,5,3,6,19,18,0,21/09/2020 6:47:15
7,-2,5,13,13,11,2,0,21/09/2020 6:47:15
-14,-3,13,-1,-2,-10,-1,0,21/09/2020 6:47:15
4,-5,-1,-4,10,2,-9,0,21/09/2020 6:47:15
-2,3,2,8,4,4,-2,0,21/09/2020 6:47:15
8,11,-2,3,-31,-3,1,0,21/09/2020 6:47:15
-2,3,-10,1,3,2,-7,0,21/09/2020 6:47:15
10,5,0,-15,-13,-3,0,0,21/09/2020 6:47:15
3,-7,-5,-11,-14,1,3,0,21/09/2020 6:47:15
7,-6,-6,-20,-9,3,5,0,21/09/2020 6:47:15
2,12,10,-1,-3,-5,-1,0,21/09/2020 6:47:15
-2,-7,-7,-7,-30,1,-1,0,21/09/2020 6:47:16
-3,-2,-3,12,3,-5,-4,0,21/09/2020 6:47:16
3,1,0,-4,17,1,-8,0,21/09/2020 6:47:16
2,-3,0,-5,-16,-6,18,0,21/09/2020 6:47:16
10,4,3,-3,4,7,6,0,21/09/2020 6:47:16
-13,-7,-5,-8,-7,-11,-24,0,21/09/2020 6:47:16
-18,-8,-2,1,-1,-5,-14,0,21/09/2020 6:47:16
-58,34,10,2,2,1,4,0,21/09/2020 6:47:16
-35,-9,20,5,4,5,-1,0,21/09/2020 6:47:16
-12,6,-13,4,5,2,32,0,21/09/2020 6:47:16
-25,-33,-28,-14,-10,-11,13,0,21/09/2020 6:47:16
-60,-5,-1,5,7,12,1,0,21/09/2020 6:47:16
-16,26,36,1,-4,-7,-17,0,21/09/2020 6:47:16
-26,20,27,0,-1,1,23,0,21/09/2020 6:47:16
1,0,-1,1,1,-1,5,0,21/09/2020 6:47:16
-4,-8,-5,0,-4,-8,-6,0,21/09/2020 6:47:16
-1,-1,-2,-2,-1,-6,6,0,21/09/2020 6:47:16
2,2,3,0,-8,-6,2,0,21/09/2020 6:47:16
-12,-3,-1,-1,-10,0,-13,0,21/09/2020 6:47:16
11,3,0,7,21,6,3,0,21/09/2020 6:47:16
-1,-7,-5,-1,-26,6,-6,0,21/09/2020 6:47:16
-10,-2,0,-9,-17,-9,-21,0,21/09/2020 6:47:16
3,2,-2,-12,-67,-28,-12,0,21/09/2020 6:47:16
-6,-5,-6,-3,-43,51,24,0,21/09/2020 6:47:16
0,7,12,43,105,8,-11,0,21/09/2020 6:47:16
1,3,-1,-26,-91,-19,5,0,21/09/2020 6:47:16
10,6,6,4,21,90,29,0,21/09/2020 6:47:16
-3,-3,-7,-19,-58,-30,-11,0,21/09/2020 6:47:16
-9,-4,-2,3,119,3,-21,0,21/09/2020 6:47:16
1,1,-2,-10,-18,-25,7,0,21/09/2020 6:47:16
-5,-2,2,22,67,55,-6,0,21/09/2020 6:47:16
-2,-6,-8,0,-7,4,-4,0,21/09/2020 6:47:16
-6,-7,-4,10,37,13,-2,0,21/09/2020 6:47:16
2,1,1,1,-36,45,-7,0,21/09/2020 6:47:16
-2,0,1,-4,-39,-79,-21,0,21/09/2020 6:47:16
-4,-6,-7,-2,52,24,2,0,21/09/2020 6:47:16
-3,-2,0,-2,6,46,8,0,21/09/2020 6:47:16
4,4,1,-3,-27,-4,1,0,21/09/2020 6:47:16
4,2,-1,-1,28,12,-5,0,21/09/2020 6:47:16
5,-1,0,1,-16,-4,15,0,21/09/2020 6:47:17
-2,3,0,-4,-9,-1,11,0,21/09/2020 6:47:17
-7,-2,1,4,57,1,-4,0,21/09/2020 6:47:17
-2,-2,-4,-3,55,-13,-9,0,21/09/2020 6:47:17
-1,-2,-8,-16,-55,-26,1,0,21/09/2020 6:47:17
-1,2,4,12,-5,2,26,0,21/09/2020 6:47:17
-6,-2,0,-4,-8,-10,7,0,21/09/2020 6:47:17
-10,-4,-5,-7,-18,11,-9,0,21/09/2020 6:47:17
-5,-3,-5,-5,7,14,-3,0,21/09/2020 6:47:17
-1,0,0,3,2,7,10,0,21/09/2020 6:47:17
-5,-4,-5,-2,10,-34,-13,0,21/09/2020 6:47:17
-2,2,2,10,56,29,3,0,21/09/2020 6:47:17
-5,-6,-4,3,-11,15,-6,0,21/09/2020 6:47:17
7,3,2,1,-34,16,16,0,21/09/2020 6:47:17
1,-1,-2,-7,11,-9,-14,0,21/09/2020 6:47:17
3,3,2,3,18,15,3,0,21/09/2020 6:47:17
-7,-4,-2,2,9,-4,-9,0,21/09/2020 6:47:17
5,1,3,14,60,57,17,0,21/09/2020 6:47:17
2,-1,-3,-25,-71,-36,-3,0,21/09/2020 6:47:17
6,2,1,0,-62,-27,8,0,21/09/2020 6:47:17
-3,-3,-3,0,41,10,-7,0,21/09/2020 6:47:17
3,-2,-3,4,1,4,0,0,21/09/2020 6:47:17
-14,-7,-4,-9,-9,-17,-24,0,21/09/2020 6:47:17
6,1,1,0,-12,-20,-8,0,21/09/2020 6:47:17
-1,0,-1,-5,-3,5,2,0,21/09/2020 6:47:17
1,-1,0,0,25,13,4,0,21/09/2020 6:47:17
-3,-3,-2,2,-28,7,8,0,21/09/2020 6:47:17
1,1,0,-6,-23,-20,-3,0,21/09/2020 6:47:17
5,3,3,9,-9,-6,-23,0,21/09/2020 6:47:17
-1,-2,-2,-3,0,1,11,0,21/09/2020 6:47:17
6,3,0,-1,-1,0,3,0,21/09/2020 6:47:17
-4,-2,0,-4,-13,2,8,0,21/09/2020 6:47:17
3,1,0,-1,-12,7,8,0,21/09/2020 6:47:17
-2,1,2,7,20,1,-8,0,21/09/2020 6:47:17
0,-2,-1,11,47,19,0,0,21/09/2020 6:47:17
2,0,1,6,33,8,0,0,21/09/2020 6:47:17
-7,-5,-4,-12,-40,-10,-8,0,21/09/2020 6:47:17
-5,-3,-3,-6,-33,-18,-1,0,21/09/2020 6:47:17
0,-1,-3,-2,4,4,2,0,21/09/2020 6:47:17
-6,-3,-1,-3,-32,-11,-7,0,21/09/2020 6:47:17
-2,-4,-3,-5,-10,-21,-5,0,21/09/2020 6:47:17
-11,-1,-1,3,-15,10,-2,0,21/09/2020 6:47:17
-17,-3,-3,3,19,7,-5,0,21/09/2020 6:47:17
-5,-2,1,6,40,19,5,0,21/09/2020 6:47:17
-4,1,-1,10,48,11,9,0,21/09/2020 6:47:17
-4,-3,-5,4,29,17,-3,0,21/09/2020 6:47:17
-12,-6,-3,-21,-6,-20,-9,0,21/09/2020 6:47:17
-1,4,3,0,-11,-1,2,0,21/09/2020 6:47:17
0,2,2,4,9,11,4,0,21/09/2020 6:47:17
-3,-1,-3,-4,-25,-7,-3,0,21/09/2020 6:47:17
2,2,2,-5,16,-13,1,0,21/09/2020 6:47:17
-4,-1,0,-3,-19,-7,-5,0,21/09/2020 6:47:17
4,3,2,8,31,10,7,0,21/09/2020 6:47:17
6,-1,0,3,24,15,4,0,21/09/2020 6:47:17
2,1,-1,-5,-47,-18,-5,0,21/09/2020 6:47:17
6,1,2,9,68,15,3,0,21/09/2020 6:47:17
-5,-4,-2,-7,-25,-32,-7,0,21/09/2020 6:47:17
11,0,-1,2,15,15,6,0,21/09/2020 6:47:18
0,0,-4,-6,-77,-24,-6,0,21/09/2020 6:47:18
-8,-3,-2,6,34,14,-2,0,21/09/2020 6:47:18
10,0,-1,1,5,-3,-3,0,21/09/2020 6:47:18
-5,-6,-12,31,13,22,16,0,21/09/2020 6:55:19
18,-34,-10,10,15,67,17,0,21/09/2020 6:55:20
-6,-4,15,5,21,7,14,0,21/09/2020 6:55:20
-3,-1,-5,-2,3,-4,-3,0,21/09/2020 6:55:20
11,5,8,-15,6,19,-3,0,21/09/2020 6:55:20
-10,-6,-7,-22,-64,-30,27,0,21/09/2020 6:55:20
-18,-5,1,27,41,4,-2,0,21/09/2020 6:55:20
-3,-3,-3,-49,10,-15,-30,0,21/09/2020 6:55:20
2,7,11,65,25,16,39,0,21/09/2020 6:55:21
32,12,19,59,59,41,19,0,21/09/2020 6:55:21
-17,9,11,34,-39,12,19,0,21/09/2020 6:55:21
11,10,4,11,28,-1,1,0,21/09/2020 6:55:21
-13,-10,-11,-14,-8,-31,-33,0,21/09/2020 6:55:21
16,-6,-5,4,-5,19,25,0,21/09/2020 6:55:21
-5,-4,-12,-25,-50,-3,-4,0,21/09/2020 6:55:21
-5,-9,-6,2,17,-14,-20,0,21/09/2020 6:55:21
-33,-14,-23,-25,-86,-43,-19,0,21/09/2020 6:55:21
-36,4,10,11,3,16,21,0,21/09/2020 6:55:21
43,16,4,0,-19,-16,-14,0,21/09/2020 6:55:21
-15,-6,10,-6,-1,-1,-20,0,21/09/2020 6:55:21
71,5,-15,46,35,31,31,0,21/09/2020 6:55:21
12,-8,-17,-17,-10,-19,-7,0,21/09/2020 6:55:21
16,5,2,-4,55,-26,-8,0,21/09/2020 6:55:21
4,1,4,-15,-62,21,15,0,21/09/2020 6:55:21
12,1,2,8,-12,-28,-6,0,21/09/2020 6:55:21
