Raw EMG - Pod01,Raw EMG - Pod02,Raw EMG - Pod03,Raw EMG - Pod04,Raw EMG - Pod05,Raw EMG - Pod06,Raw EMG - Pod07,Raw EMG - Pod08,Timestamp
0,0,0,0,0,0,0,20,2020-10-21 18:12:46.661
19,43,7,-1,14,6,12,2,2020-10-21 18:12:46.730
16,52,87,18,4,-4,-1,-7,2020-10-21 18:12:46.744
-6,-26,-15,-4,-3,1,-2,-23,2020-10-21 18:12:46.766
-19,-35,-22,-18,-9,-11,-42,-3,2020-10-21 18:12:46.775
-7,14,5,-6,-10,-9,-5,-6,2020-10-21 18:12:46.786
-6,-15,25,-3,-4,-1,-20,-6,2020-10-21 18:12:46.841
-6,-15,25,-3,-4,-1,-20,-4,2020-10-21 18:12:46.894
-2,15,8,9,-2,-15,-20,10,2020-10-21 18:12:46.911
5,8,-3,-9,-1,11,35,10,2020-10-21 18:12:46.933
5,8,-3,-9,-1,11,35,-5,2020-10-21 18:12:46.944
-8,4,-14,-12,-3,-6,-18,-2,2020-10-21 18:12:46.956
-2,11,-8,-3,-2,-2,17,11,2020-10-21 18:12:46.967
11,14,-4,-3,-2,-3,-10,11,2020-10-21 18:12:46.980
11,14,-4,-3,-2,-3,-10,4,2020-10-21 18:12:46.999
4,-7,7,8,4,-1,7,7,2020-10-21 18:12:47.019
8,-35,1,1,-5,16,-14,-5,2020-10-21 18:12:47.035
-15,-27,-15,-13,-5,7,7,5,2020-10-21 18:12:47.049
10,4,16,-2,-4,1,-7,-3,2020-10-21 18:12:47.060
-11,-37,20,-17,-8,-6,4,-1,2020-10-21 18:12:47.069
-8,-27,-10,10,-3,-3,-7,-1,2020-10-21 18:12:47.093
-8,-27,-10,10,-3,-3,-7,-1,2020-10-21 18:12:47.099
6,3,12,-2,2,-5,-22,-1,2020-10-21 18:12:47.108
6,3,12,-2,2,-5,-22,-1,2020-10-21 18:12:47.116
6,3,12,-2,2,-5,-22,0,2020-10-21 18:12:47.123
1,-3,19,8,-1,8,-9,0,2020-10-21 18:12:47.131
1,-3,19,8,-1,8,-9,0,2020-10-21 18:12:47.139
2,7,21,-11,-1,1,1,1,2020-10-21 18:12:47.146
1,-15,-5,-3,-1,1,19,6,2020-10-21 18:12:47.163
0,21,50,7,-3,11,27,-4,2020-10-21 18:12:47.170
0,8,-4,-8,-4,-10,-20,0,2020-10-21 18:12:47.178
4,24,14,-1,-13,-21,-28,12,2020-10-21 18:12:47.185
16,92,24,12,-2,-1,5,12,2020-10-21 18:12:47.192
16,92,24,12,-2,-1,5,-1,2020-10-21 18:12:47.199
-6,-37,-41,21,3,-6,-5,-1,2020-10-21 18:12:47.207
-6,-37,-41,21,3,-6,-5,4,2020-10-21 18:12:47.213
4,-10,1,-1,-2,-7,-13,-2,2020-10-21 18:12:47.220
0,28,-1,-3,1,0,10,-2,2020-10-21 18:12:47.228
0,28,-1,-3,1,0,10,-2,2020-10-21 18:12:47.236
0,28,-1,-3,1,0,10,-7,2020-10-21 18:12:47.244
-3,-12,12,13,-7,-35,-56,-7,2020-10-21 18:12:47.250
-3,-12,12,13,-7,-35,-56,-7,2020-10-21 18:12:47.257
-3,-12,12,13,-7,-35,-56,-20,2020-10-21 18:12:47.262
-21,-22,-1,-19,-20,5,-7,-20,2020-10-21 18:12:47.270
-21,-22,-1,-19,-20,5,-7,-3,2020-10-21 18:12:47.277
-14,-9,-65,-17,-15,20,-2,8,2020-10-21 18:12:47.282
10,-16,38,-13,-12,7,-26,8,2020-10-21 18:12:47.289
10,-16,38,-13,-12,7,-26,-2,2020-10-21 18:12:47.296
-4,-23,-25,21,12,-13,-23,2,2020-10-21 18:12:47.302
4,-3,5,-6,7,3,7,2,2020-10-21 18:12:47.308
4,-3,5,-6,7,3,7,2,2020-10-21 18:12:47.315
4,-3,5,-6,7,3,7,-2,2020-10-21 18:12:47.321
-11,-10,-24,-15,8,2,55,-2,2020-10-21 18:12:47.329
-11,-10,-24,-15,8,2,55,-1,2020-10-21 18:12:47.375
-8,-30,-26,6,11,3,14,6,2020-10-21 18:12:47.389
-1,-22,-11,-1,6,6,22,3,2020-10-21 18:12:47.399
8,4,-1,-1,-2,2,7,-4,2020-10-21 18:12:47.405
-6,36,20,-2,-5,3,-23,-4,2020-10-21 18:12:47.412
-6,36,20,-2,-5,3,-23,4,2020-10-21 18:12:47.420
-9,-2,-4,-8,2,-1,21,3,2020-10-21 18:12:47.432
3,-3,2,3,22,3,-3,-2,2020-10-21 18:12:47.442
0,4,3,-16,-5,-9,-21,-1,2020-10-21 18:12:47.449
0,-17,-32,-8,0,8,19,-6,2020-10-21 18:12:47.456
-5,-40,1,9,10,7,1,3,2020-10-21 18:12:47.460
9,24,4,-6,-6,-5,-9,3,2020-10-21 18:12:47.466
9,24,4,-6,-6,-5,-9,3,2020-10-21 18:12:47.477
9,24,4,-6,-6,-5,-9,4,2020-10-21 18:12:47.483
21,-53,-13,1,5,0,6,4,2020-10-21 18:12:47.490
21,-53,-13,1,5,0,6,4,2020-10-21 18:12:47.497
21,-53,-13,1,5,0,6,-6,2020-10-21 18:12:47.504
-13,7,-5,-3,-3,0,-6,-6,2020-10-21 18:12:47.512
-13,7,-5,-3,-3,0,-6,2,2020-10-21 18:12:47.519
4,-24,-8,2,16,-11,-12,0,2020-10-21 18:12:47.524
-3,-9,1,1,-6,-3,-10,0,2020-10-21 18:12:47.532
-3,-9,1,1,-6,-3,-10,1,2020-10-21 18:12:47.538
-1,13,7,0,-6,-1,4,-4,2020-10-21 18:12:47.544
-6,-2,3,-3,-2,0,0,-4,2020-10-21 18:12:47.551
-6,-2,3,-3,-2,0,0,-4,2020-10-21 18:12:47.558
-6,-2,3,-3,-2,0,0,6,2020-10-21 18:12:47.564
6,-4,31,15,0,7,15,6,2020-10-21 18:12:47.570
6,-4,31,15,0,7,15,-6,2020-10-21 18:12:47.577
-6,-21,-10,4,-1,4,5,-2,2020-10-21 18:12:47.583
-3,16,5,1,-1,-2,-10,-2,2020-10-21 18:12:47.591
-3,16,5,1,-1,-2,-10,1,2020-10-21 18:12:47.599
0,5,-2,7,1,-1,-6,1,2020-10-21 18:12:47.605
-2,-7,5,-9,-2,-12,-14,1,2020-10-21 18:12:47.612
-2,-7,5,-9,-2,-12,-14,1,2020-10-21 18:12:47.618
-2,-7,5,-9,-2,-12,-14,-1,2020-10-21 18:12:47.624
2,-4,6,1,2,0,-3,-1,2020-10-21 18:12:47.631
2,-4,6,1,2,0,-3,-1,2020-10-21 18:12:47.637
-6,28,6,17,6,-1,-1,2,2020-10-21 18:12:47.644
6,-8,9,-3,-9,9,-9,2,2020-10-21 18:12:47.652
6,-8,9,-3,-9,9,-9,-4,2020-10-21 18:12:47.664
-7,-4,19,6,0,-6,11,10,2020-10-21 18:12:47.672
-2,-15,-31,-4,-6,-11,59,-9,2020-10-21 18:12:47.682
-12,-8,-4,23,7,0,-15,-9,2020-10-21 18:12:47.690
-12,-8,-4,23,7,0,-15,7,2020-10-21 18:12:47.696
10,-18,-3,-4,2,-1,26,-3,2020-10-21 18:12:47.702
-1,0,-19,-7,-2,6,2,-3,2020-10-21 18:12:47.709
-1,0,-19,-7,-2,6,2,-3,2020-10-21 18:12:47.716
-2,-15,-14,-1,2,2,-17,-2,2020-10-21 18:12:47.722
1,7,15,1,-6,-10,4,0,2020-10-21 18:12:47.730
3,33,14,-3,3,-6,2,0,2020-10-21 18:12:47.739
3,33,14,-3,3,-6,2,-2,2020-10-21 18:12:47.747
4,-8,4,-2,-10,1,-22,-2,2020-10-21 18:12:47.755
4,-8,4,-2,-10,1,-22,-2,2020-10-21 18:12:47.762
4,-8,4,-2,-10,1,-22,-7,2020-10-21 18:12:47.768
-8,11,1,-3,6,0,-18,3,2020-10-21 18:12:47.775
7,-9,2,4,2,4,0,3,2020-10-21 18:12:47.781
7,-9,2,4,2,4,0,0,2020-10-21 18:12:47.787
1,-16,2,-4,-5,-10,2,0,2020-10-21 18:12:47.794
1,-16,2,-4,-5,-10,2,0,2020-10-21 18:12:47.800
4,14,4,-1,2,3,1,0,2020-10-21 18:12:47.806
4,14,4,-1,2,3,1,0,2020-10-21 18:12:47.813
4,14,4,-1,2,3,1,-3,2020-10-21 18:12:47.821
0,2,-11,4,-1,-6,-6,-3,2020-10-21 18:12:47.826
-2,4,-15,-8,2,-1,-5,-3,2020-10-21 18:12:47.833
-2,4,-15,-8,2,-1,-5,-6,2020-10-21 18:12:47.839
-4,-16,7,-10,-8,-13,-20,-4,2020-10-21 18:12:47.846
-4,-2,-8,-5,-10,-9,-14,-4,2020-10-21 18:12:47.852
-4,-2,-8,-5,-10,-9,-14,-1,2020-10-21 18:12:47.859
3,11,-1,-8,-3,-14,1,-2,2020-10-21 18:12:47.864
3,34,-5,6,4,0,-15,-2,2020-10-21 18:12:47.870
3,34,-5,6,4,0,-15,7,2020-10-21 18:12:47.877
5,-1,12,6,1,8,41,11,2020-10-21 18:12:47.887
3,-16,-4,-8,1,10,52,11,2020-10-21 18:12:47.894
3,-16,-4,-8,1,10,52,-7,2020-10-21 18:12:47.900
5,28,13,2,1,3,-17,3,2020-10-21 18:12:47.909
4,13,0,-2,2,4,-1,3,2020-10-21 18:12:47.917
4,13,0,-2,2,4,-1,-4,2020-10-21 18:12:47.924
3,14,13,6,0,0,-21,4,2020-10-21 18:12:47.934
-4,2,-5,8,9,-13,46,-11,2020-10-21 18:12:47.942
-11,-14,-22,1,-3,-23,-32,1,2020-10-21 18:12:47.949
4,-6,25,-2,15,13,6,1,2020-10-21 18:12:47.963
4,-6,25,-2,15,13,6,-1,2020-10-21 18:12:47.975
1,11,27,16,5,-10,-32,-1,2020-10-21 18:12:47.985
1,11,27,16,5,-10,-32,-3,2020-10-21 18:12:47.992
-12,-37,-22,-13,-8,3,4,-4,2020-10-21 18:12:48.004
-6,-30,-18,-3,-14,-4,-8,-6,2020-10-21 18:12:48.012
-9,-32,-25,6,-13,-4,-29,-1,2020-10-21 18:12:48.026
-7,-14,-9,-11,-2,-11,11,3,2020-10-21 18:12:48.034
9,-16,-5,-5,5,-18,12,15,2020-10-21 18:12:48.041
12,-3,11,10,8,5,30,-2,2020-10-21 18:12:48.048
4,23,0,-1,1,-7,-3,-4,2020-10-21 18:12:48.060
3,5,0,7,-10,4,-28,-5,2020-10-21 18:12:48.066
-4,-9,-4,-5,-3,5,2,-5,2020-10-21 18:12:48.076
-4,-9,-4,-5,-3,5,2,-5,2020-10-21 18:12:48.083
-5,-14,-7,-9,0,8,4,-1,2020-10-21 18:12:48.099
-5,12,5,7,1,5,4,4,2020-10-21 18:12:48.106
3,7,12,-9,-18,-13,-6,4,2020-10-21 18:12:48.115
3,7,12,-9,-18,-13,-6,4,2020-10-21 18:12:48.126
3,7,12,-9,-18,-13,-6,-2,2020-10-21 18:12:48.133
3,38,15,-4,-1,7,1,-3,2020-10-21 18:12:48.151
-2,-15,1,5,0,-4,-2,-4,2020-10-21 18:12:48.159
-4,-6,-9,-11,-1,-1,-3,-5,2020-10-21 18:12:48.170
1,8,5,-2,-11,-8,-9,-5,2020-10-21 18:12:48.184
1,8,5,-2,-11,-8,-9,-6,2020-10-21 18:12:48.203
-8,-12,-3,2,4,3,-5,4,2020-10-21 18:12:48.212
7,-10,34,7,13,6,5,-5,2020-10-21 18:12:48.228
-10,-17,19,1,0,-2,-1,0,2020-10-21 18:12:48.235
-2,-13,-8,6,-6,-2,-4,0,2020-10-21 18:12:48.241
-6,-9,1,-10,1,-7,-7,0,2020-10-21 18:12:48.248
-6,-9,1,-10,1,-7,-7,-3,2020-10-21 18:12:48.254
-3,-6,18,10,4,1,1,-3,2020-10-21 18:12:48.261
-6,-15,-43,6,-2,-1,-1,7,2020-10-21 18:12:48.268
4,11,11,5,4,7,5,7,2020-10-21 18:12:48.275
4,11,11,5,4,7,5,0,2020-10-21 18:12:48.281
5,36,17,2,-2,-5,-4,-8,2020-10-21 18:12:48.290
-5,-4,-22,0,-3,-1,-4,-8,2020-10-21 18:12:48.301
-5,-4,-22,0,-3,-1,-4,1,2020-10-21 18:12:48.309
-1,4,28,-9,7,8,7,-11,2020-10-21 18:12:48.315
-13,-8,-4,4,2,-5,-9,0,2020-10-21 18:12:48.321
2,9,3,-5,-9,-1,-2,0,2020-10-21 18:12:48.329
2,9,3,-5,-9,-1,-2,0,2020-10-21 18:12:48.336
2,9,3,-5,-9,-1,-2,3,2020-10-21 18:12:48.350
15,13,-1,0,-4,4,6,-7,2020-10-21 18:12:48.358
-10,-14,-28,4,1,-4,-17,8,2020-10-21 18:12:48.364
7,1,-1,3,-4,1,7,8,2020-10-21 18:12:48.371
7,1,-1,3,-4,1,7,1,2020-10-21 18:12:48.377
0,0,1,-8,0,2,-2,0,2020-10-21 18:12:48.382
-4,-4,-4,-3,2,-4,-4,0,2020-10-21 18:12:48.389
-4,-4,-4,-3,2,-4,-4,0,2020-10-21 18:12:48.397
-4,-4,-4,-3,2,-4,-4,-2,2020-10-21 18:12:48.403
-4,-4,-10,-2,2,-2,-6,-4,2020-10-21 18:12:48.410
-3,-6,-19,-6,3,1,2,-4,2020-10-21 18:12:48.416
-3,-6,-19,-6,3,1,2,2,2020-10-21 18:12:48.423
8,35,24,3,2,2,3,2,2020-10-21 18:12:48.432
8,35,24,3,2,2,3,-3,2020-10-21 18:12:48.438
-4,21,-12,-4,-7,-1,3,-3,2020-10-21 18:12:48.447
-4,21,-12,-4,-7,-1,3,3,2020-10-21 18:12:48.456
4,-8,-11,2,3,5,8,-2,2020-10-21 18:12:48.462
-5,-6,8,-17,-2,-2,0,-2,2020-10-21 18:12:48.469
2,8,3,4,-2,-3,-3,-2,2020-10-21 18:12:48.476
2,8,3,4,-2,-3,-3,-1,2020-10-21 18:12:48.482
-2,-18,1,0,2,0,0,-1,2020-10-21 18:12:48.489
-2,-18,1,0,2,0,0,0,2020-10-21 18:12:48.496
-4,-9,-1,-6,-3,1,2,-8,2020-10-21 18:12:48.512
-14,14,3,-3,-4,-9,-10,5,2020-10-21 18:12:48.518
4,-33,-5,11,14,3,2,3,2020-10-21 18:12:48.525
7,11,0,-8,-2,3,4,3,2020-10-21 18:12:48.532
7,11,0,-8,-2,3,4,3,2020-10-21 18:12:48.538
7,11,0,-8,-2,3,4,3,2020-10-21 18:12:48.545
2,-3,4,5,2,2,3,3,2020-10-21 18:12:48.551
2,-3,4,5,2,2,3,-2,2020-10-21 18:12:48.558
2,-2,1,4,-3,-1,-2,-1,2020-10-21 18:12:48.564
-1,-6,-8,-3,-2,1,0,-1,2020-10-21 18:12:48.570
-1,-6,-8,-3,-2,1,0,-1,2020-10-21 18:12:48.578
-1,-6,-8,-3,-2,1,0,-4,2020-10-21 18:12:48.584
0,-8,5,-3,0,-3,0,-4,2020-10-21 18:12:48.591
0,-8,5,-3,0,-3,0,-4,2020-10-21 18:12:48.597
0,-8,5,-3,0,-3,0,2,2020-10-21 18:12:48.608
0,2,3,13,3,2,1,2,2020-10-21 18:12:48.614
0,2,3,13,3,2,1,-5,2020-10-21 18:12:48.622
-4,-13,-8,-3,-4,-4,-6,2,2020-10-21 18:12:48.628
0,3,3,-10,0,2,3,2,2020-10-21 18:12:48.635
0,3,3,-10,0,2,3,-1,2020-10-21 18:12:48.640
-5,-26,-4,6,-1,-1,2,4,2020-10-21 18:12:48.652
3,-7,-1,-1,0,3,-5,4,2020-10-21 18:12:48.658
3,-7,-1,-1,0,3,-5,5,2020-10-21 18:12:48.663
5,19,31,7,-4,2,7,5,2020-10-21 18:12:48.670
5,19,31,7,-4,2,7,2,2020-10-21 18:12:48.676
2,11,5,-1,5,6,10,2,2020-10-21 18:12:48.681
2,11,5,-1,5,6,10,-3,2020-10-21 18:12:48.687
-4,-39,-22,1,-7,-5,-8,-3,2020-10-21 18:12:48.694
-4,-39,-22,1,-7,-5,-8,-2,2020-10-21 18:12:48.700
-3,-23,-8,-3,0,-3,-4,0,2020-10-21 18:12:48.710
-1,-2,-10,1,-1,-1,2,0,2020-10-21 18:12:48.716
-1,-2,-10,1,-1,-1,2,0,2020-10-21 18:12:48.722
-1,-2,-10,1,-1,-1,2,0,2020-10-21 18:12:48.729
-1,-2,-10,1,-1,-1,2,3,2020-10-21 18:12:48.735
9,-14,7,21,4,-1,0,3,2020-10-21 18:12:48.741
9,-14,7,21,4,-1,0,0,2020-10-21 18:12:48.748
-3,-5,-5,4,4,0,-1,0,2020-10-21 18:12:48.754
-3,-5,-5,4,4,0,-1,0,2020-10-21 18:12:48.759
0,14,18,0,6,-2,0,-1,2020-10-21 18:12:48.765
-1,5,-2,6,6,1,0,-1,2020-10-21 18:12:48.771
-1,5,-2,6,6,1,0,-1,2020-10-21 18:12:48.777
-1,5,-2,6,6,1,0,-6,2020-10-21 18:12:48.783
-8,-22,-32,-13,-8,-4,-5,-1,2020-10-21 18:12:48.789
6,35,8,-2,4,2,3,0,2020-10-21 18:12:48.795
0,7,3,-6,-1,-2,-2,0,2020-10-21 18:12:48.801
0,7,3,-6,-1,-2,-2,1,2020-10-21 18:12:48.808
0,-2,-2,-3,-1,3,3,1,2020-10-21 18:12:48.814
0,-2,-2,-3,-1,3,3,-6,2020-10-21 18:12:48.819
-9,7,-25,-18,-9,-8,-6,-4,2020-10-21 18:12:48.825
-4,-19,-27,-5,-1,-3,-3,-4,2020-10-21 18:12:48.832
-4,-19,-27,-5,-1,-3,-3,-4,2020-10-21 18:12:48.837
-4,-19,-27,-5,-1,-3,-3,2,2020-10-21 18:12:48.844
2,7,31,7,3,5,5,1,2020-10-21 18:12:48.850
0,11,0,-3,1,0,2,2,2020-10-21 18:12:48.856
4,-16,-7,-4,-3,-1,-1,-7,2020-10-21 18:12:48.862
-21,-32,-21,-3,-5,-3,-3,-7,2020-10-21 18:12:48.868
-21,-32,-21,-3,-5,-3,-3,-7,2020-10-21 18:12:48.874
-21,-32,-21,-3,-5,-3,-3,-4,2020-10-21 18:12:48.880
7,-27,-30,-8,-5,-4,-5,4,2020-10-21 18:12:48.886
15,2,-6,12,8,-1,0,4,2020-10-21 18:12:48.893
15,2,-6,12,8,-1,0,-10,2020-10-21 18:12:48.899
-16,-10,1,-1,-4,-1,-1,-6,2020-10-21 18:12:48.905
-17,10,12,-17,-10,-1,-4,4,2020-10-21 18:12:48.915
5,36,35,-6,-6,2,3,2,2020-10-21 18:12:48.927
12,17,11,4,-2,0,0,-5,2020-10-21 18:12:48.933
-18,-18,-13,-4,0,-5,-1,-7,2020-10-21 18:12:48.939
-17,-15,5,-1,0,-6,-3,0,2020-10-21 18:12:48.945
10,17,2,3,12,0,-1,0,2020-10-21 18:12:48.951
10,17,2,3,12,0,-1,0,2020-10-21 18:12:48.957
10,17,2,3,12,0,-1,2,2020-10-21 18:12:48.963
2,-2,-3,0,-2,0,1,1,2020-10-21 18:12:48.969
7,0,4,-2,-6,-2,-1,1,2020-10-21 18:12:48.976
7,0,4,-2,-6,-2,-1,1,2020-10-21 18:12:48.982
7,0,4,-2,-6,-2,-1,5,2020-10-21 18:12:48.988
-2,-11,15,1,1,2,2,5,2020-10-21 18:12:48.995
-2,-11,15,1,1,2,2,3,2020-10-21 18:12:49.000
6,-14,1,3,5,1,0,-2,2020-10-21 18:12:49.006
-4,-11,-14,1,6,0,0,-2,2020-10-21 18:12:49.013
-4,-11,-14,1,6,0,0,-2,2020-10-21 18:12:49.019
-4,1,-2,4,3,-1,-2,-2,2020-10-21 18:12:49.025
-4,1,-2,4,3,-1,-2,8,2020-10-21 18:12:49.031
11,28,17,-16,-6,1,3,8,2020-10-21 18:12:49.037
11,28,17,-16,-6,1,3,-2,2020-10-21 18:12:49.043
1,2,15,4,0,-1,0,-2,2020-10-21 18:12:49.050
1,2,15,4,0,-1,0,-2,2020-10-21 18:12:49.055
1,2,15,4,0,-1,0,-2,2020-10-21 18:12:49.061
3,12,1,1,3,-3,-4,1,2020-10-21 18:12:49.067
-5,-14,-10,5,7,2,1,1,2020-10-21 18:12:49.073
-5,-14,-10,5,7,2,1,1,2020-10-21 18:12:49.080
-5,-14,-10,5,7,2,1,-9,2020-10-21 18:12:49.086
-16,-15,-25,1,-2,-4,-6,-1,2020-10-21 18:12:49.092
-5,-11,-17,-2,-4,0,-1,-1,2020-10-21 18:12:49.099
-5,-11,-17,-2,-4,0,-1,-7,2020-10-21 18:12:49.105
-8,-21,-16,-5,-5,-3,-5,-7,2020-10-21 18:12:49.112
-8,-21,-16,-5,-5,-3,-5,1,2020-10-21 18:12:49.123
1,4,0,7,-7,-8,-6,1,2020-10-21 18:12:49.129
4,-3,-2,-3,0,1,0,1,2020-10-21 18:12:49.135
4,-3,-2,-3,0,1,0,-8,2020-10-21 18:12:49.140
-12,-15,-5,-15,-3,0,-1,-6,2020-10-21 18:12:49.146
1,12,0,4,-3,-3,-4,-6,2020-10-21 18:12:49.152
1,12,0,4,-3,-3,-4,-6,2020-10-21 18:12:49.159
1,12,0,4,-3,-3,-4,-1,2020-10-21 18:12:49.165
1,20,11,7,-5,0,1,-1,2020-10-21 18:12:49.172
1,20,11,7,-5,0,1,-2,2020-10-21 18:12:49.178
-15,-16,-14,-1,-7,-2,-2,3,2020-10-21 18:12:49.183
2,-6,2,-9,-1,1,1,3,2020-10-21 18:12:49.190
2,-6,2,-9,-1,1,1,3,2020-10-21 18:12:49.196
2,-6,2,-9,-1,1,1,4,2020-10-21 18:12:49.208
7,5,1,3,2,1,1,-8,2020-10-21 18:12:49.214
-6,-3,-12,-1,2,-1,-6,-8,2020-10-21 18:12:49.220
-6,-3,-12,-1,2,-1,-6,1,2020-10-21 18:12:49.226
8,17,2,5,0,1,1,1,2020-10-21 18:12:49.232
8,17,2,5,0,1,1,5,2020-10-21 18:12:49.238
2,-34,-18,-15,3,3,2,4,2020-10-21 18:12:49.244
5,3,6,6,2,-1,2,4,2020-10-21 18:12:49.250
5,3,6,6,2,-1,2,4,2020-10-21 18:12:49.257
5,3,6,6,2,-1,2,-1,2020-10-21 18:12:49.262
-2,8,12,-3,-5,-1,0,0,2020-10-21 18:12:49.269
-3,-20,-7,-16,-3,0,0,0,2020-10-21 18:12:49.275
-3,-20,-7,-16,-3,0,0,0,2020-10-21 18:12:49.281
-3,-20,-7,-16,-3,0,0,-2,2020-10-21 18:12:49.287
4,15,8,-1,-5,-3,-1,-2,2020-10-21 18:12:49.294
4,15,8,-1,-5,-3,-1,-2,2020-10-21 18:12:49.300
-3,16,-2,-4,-4,-1,-1,2,2020-10-21 18:12:49.305
4,-28,-34,-6,-2,-3,-1,2,2020-10-21 18:12:49.312
4,-28,-34,-6,-2,-3,-1,2,2020-10-21 18:12:49.318
4,-28,-34,-6,-2,-3,-1,-3,2020-10-21 18:12:49.327
0,21,14,-12,-3,-1,-2,-1,2020-10-21 18:12:49.333
-4,8,6,3,-3,0,0,-1,2020-10-21 18:12:49.339
-4,8,6,3,-3,0,0,-1,2020-10-21 18:12:49.345
-1,3,9,5,6,0,-1,-1,2020-10-21 18:12:49.351
-1,3,9,5,6,0,-1,-5,2020-10-21 18:12:49.358
-4,-2,10,3,-1,-2,-6,1,2020-10-21 18:12:49.364
-4,9,8,-9,-8,-3,1,1,2020-10-21 18:12:49.370
-4,9,8,-9,-8,-3,1,1,2020-10-21 18:12:49.377
-4,9,8,-9,-8,-3,1,3,2020-10-21 18:12:49.383
16,7,19,6,5,3,4,-4,2020-10-21 18:12:49.389
-7,-2,-8,0,1,-1,-3,-4,2020-10-21 18:12:49.395
-7,-2,-8,0,1,-1,-3,-4,2020-10-21 18:12:49.401
-7,-2,-8,0,1,-1,-3,3,2020-10-21 18:12:49.406
1,-26,-24,1,-5,0,1,3,2020-10-21 18:12:49.412
1,-26,-24,1,-5,0,1,-5,2020-10-21 18:12:49.419
-6,-7,-4,9,-1,-1,-3,0,2020-10-21 18:12:49.426
-4,-3,1,5,6,3,0,0,2020-10-21 18:12:49.433
-4,-3,1,5,6,3,0,3,2020-10-21 18:12:49.439
1,-10,-11,5,3,2,1,3,2020-10-21 18:12:49.445
1,-10,-11,5,3,2,1,0,2020-10-21 18:12:49.451
-4,-8,4,2,-1,0,0,0,2020-10-21 18:12:49.457
-4,-8,4,2,-1,0,0,4,2020-10-21 18:12:49.463
6,15,25,19,14,2,4,4,2020-10-21 18:12:49.469
6,15,25,19,14,2,4,4,2020-10-21 18:12:49.475
6,15,25,19,14,2,4,4,2020-10-21 18:12:49.481
3,-4,-12,-13,-14,-3,1,-1,2020-10-21 18:12:49.493
4,-12,8,3,-2,-2,-1,0,2020-10-21 18:12:49.500
2,43,-4,-5,0,0,0,0,2020-10-21 18:12:49.508
2,43,-4,-5,0,0,0,-1,2020-10-21 18:12:49.514
4,4,1,-5,0,0,1,-1,2020-10-21 18:12:49.520
4,4,1,-5,0,0,1,-5,2020-10-21 18:12:49.531
-5,18,-1,-8,-3,-6,-8,-6,2020-10-21 18:12:49.537
-9,-11,-15,-2,3,-3,-2,-6,2020-10-21 18:12:49.543
-9,-11,-15,-2,3,-3,-2,-7,2020-10-21 18:12:49.549
-18,-25,-13,-17,-7,-3,-1,-7,2020-10-21 18:12:49.555
-18,-25,-13,-17,-7,-3,-1,3,2020-10-21 18:12:49.562
3,5,29,-2,2,4,0,0,2020-10-21 18:12:49.568
17,5,-6,-3,-4,0,-3,0,2020-10-21 18:12:49.574
17,5,-6,-3,-4,0,-3,0,2020-10-21 18:12:49.581
17,5,-6,-3,-4,0,-3,-2,2020-10-21 18:12:49.586
-1,-21,-20,-7,0,0,-3,-2,2020-10-21 18:12:49.593
-1,-21,-20,-7,0,0,-3,-1,2020-10-21 18:12:49.599
2,14,10,5,0,1,1,3,2020-10-21 18:12:49.604
0,6,21,-12,0,1,2,3,2020-10-21 18:12:49.611
0,6,21,-12,0,1,2,3,2020-10-21 18:12:49.617
0,6,21,-12,0,1,2,-2,2020-10-21 18:12:49.623
-1,-1,-11,12,-4,1,-4,-1,2020-10-21 18:12:49.629
-9,12,13,9,5,0,-2,-1,2020-10-21 18:12:49.635
-9,12,13,9,5,0,-2,-1,2020-10-21 18:12:49.641
-9,12,13,9,5,0,-2,0,2020-10-21 18:12:49.648
4,15,-5,7,-3,1,0,0,2020-10-21 18:12:49.653
4,15,-5,7,-3,1,0,1,2020-10-21 18:12:49.660
2,-3,-5,-12,-3,-2,-3,4,2020-10-21 18:12:49.666
1,6,4,4,0,0,3,4,2020-10-21 18:12:49.672
1,6,4,4,0,0,3,4,2020-10-21 18:12:49.678
1,6,4,4,0,0,3,-3,2020-10-21 18:12:49.684
1,-4,-4,3,5,-2,-2,-3,2020-10-21 18:12:49.690
-13,0,-25,-1,8,0,0,-3,2020-10-21 18:12:49.697
-13,0,-25,-1,8,0,0,-1,2020-10-21 18:12:49.703
0,-10,0,-11,-4,-3,-2,-1,2020-10-21 18:12:49.710
0,-10,0,-11,-4,-3,-2,2,2020-10-21 18:12:49.715
3,-26,1,5,3,3,1,2,2020-10-21 18:12:49.721
-3,-5,0,0,4,3,2,-2,2020-10-21 18:12:49.731
-1,7,3,-2,-4,-2,0,-2,2020-10-21 18:12:49.737
-1,7,3,-2,-4,-2,0,-1,2020-10-21 18:12:49.743
-3,3,14,1,-3,-2,-2,-4,2020-10-21 18:12:49.750
-1,-15,-13,0,-3,-4,-2,-4,2020-10-21 18:12:49.755
-1,-15,-13,0,-3,-4,-2,-4,2020-10-21 18:12:49.762
-1,-15,-13,0,-3,-4,-2,2,2020-10-21 18:12:49.768
1,-33,1,1,-2,-3,1,2,2020-10-21 18:12:49.774
1,-33,1,1,-2,-3,1,0,2020-10-21 18:12:49.786
-3,-22,-14,-1,4,1,3,2,2020-10-21 18:12:49.793
3,22,23,-15,-3,3,2,-2,2020-10-21 18:12:49.799
0,-4,-11,-3,-2,3,1,6,2020-10-21 18:12:49.804
6,15,13,-1,-2,-1,0,0,2020-10-21 18:12:49.810
-3,1,17,12,5,0,-2,0,2020-10-21 18:12:49.816
-3,1,17,12,5,0,-2,-3,2020-10-21 18:12:49.822
-7,-11,2,2,4,0,2,-3,2020-10-21 18:12:49.828
-7,-11,2,2,4,0,2,3,2020-10-21 18:12:49.834
4,-6,-7,-2,-3,0,1,-1,2020-10-21 18:12:49.840
-3,-17,-1,6,5,-1,0,-4,2020-10-21 18:12:49.846
-5,15,5,-3,-2,-4,-4,-4,2020-10-21 18:12:49.852
-5,15,5,-3,-2,-4,-4,-4,2020-10-21 18:12:49.859
-5,15,5,-3,-2,-4,-4,-3,2020-10-21 18:12:49.865
-1,28,15,-3,2,5,-2,-2,2020-10-21 18:12:49.871
8,4,-14,11,0,1,8,-2,2020-10-21 18:12:49.877
8,4,-14,11,0,1,8,-2,2020-10-21 18:12:49.883
1,5,1,-11,-2,3,-3,-2,2020-10-21 18:12:49.889
1,5,1,-11,-2,3,-3,7,2020-10-21 18:12:49.895
12,42,6,7,-3,1,3,7,2020-10-21 18:12:49.901
12,42,6,7,-3,1,3,-10,2020-10-21 18:12:49.906
-6,-6,-8,-6,-4,-4,-11,-10,2020-10-21 18:12:49.913
-6,-6,-8,-6,-4,-4,-11,-2,2020-10-21 18:12:49.919
-2,-13,-2,-3,1,0,-2,4,2020-10-21 18:12:49.925
7,47,13,2,-3,-1,1,-3,2020-10-21 18:12:49.935
-10,-6,-7,-7,7,-3,-3,-3,2020-10-21 18:12:49.941
-10,-6,-7,-7,7,-3,-3,-2,2020-10-21 18:12:49.947
-6,-9,4,-3,-3,-10,-12,8,2020-10-21 18:12:49.953
6,10,9,-1,-5,10,41,8,2020-10-21 18:12:49.959
6,10,9,-1,-5,10,41,3,2020-10-21 18:12:49.965
-1,-2,-3,4,2,1,2,-1,2020-10-21 18:12:49.971
-4,-11,9,-11,-7,2,-13,-1,2020-10-21 18:12:49.979
-4,-11,9,-11,-7,2,-13,-1,2020-10-21 18:12:49.985
-4,-11,9,-11,-7,2,-13,-5,2020-10-21 18:12:49.991
-5,-15,10,-3,2,4,0,-5,2020-10-21 18:12:49.997
-5,-15,10,-3,2,4,0,7,2020-10-21 18:12:50.003
11,41,20,1,0,-1,-3,-3,2020-10-21 18:12:50.010
-4,20,10,5,2,2,4,3,2020-10-21 18:12:50.016
6,8,0,4,2,-3,-2,3,2020-10-21 18:12:50.022
6,8,0,4,2,-3,-2,3,2020-10-21 18:12:50.029
2,9,2,6,0,-3,-4,3,2020-10-21 18:12:50.035
2,9,2,6,0,-3,-4,0,2020-10-21 18:12:50.041
0,-8,-8,0,-4,2,-3,-4,2020-10-21 18:12:50.047
-3,-17,-44,4,-14,-4,-7,-4,2020-10-21 18:12:50.053
-3,-17,-44,4,-14,-4,-7,-4,2020-10-21 18:12:50.059
-3,-17,-44,4,-14,-4,-7,7,2020-10-21 18:12:50.065
3,-5,19,4,3,4,9,2,2020-10-21 18:12:50.077
-1,-17,7,7,2,-8,1,2,2020-10-21 18:12:50.083
-1,-17,7,7,2,-8,1,-5,2020-10-21 18:12:50.090
-4,-1,-4,-13,-3,-3,-14,-5,2020-10-21 18:12:50.096
-4,-1,-4,-13,-3,-3,-14,1,2020-10-21 18:12:50.101
0,9,46,11,5,1,5,5,2020-10-21 18:12:50.107
10,51,25,-9,2,8,9,5,2020-10-21 18:12:50.113
10,51,25,-9,2,8,9,5,2020-10-21 18:12:50.119
10,51,25,-9,2,8,9,-6,2020-10-21 18:12:50.126
-4,-19,-24,2,-3,-2,-4,-2,2020-10-21 18:12:50.136
-8,-23,-9,-16,-2,-2,2,-2,2020-10-21 18:12:50.143
-8,-23,-9,-16,-2,-2,2,-8,2020-10-21 18:12:50.148
-2,11,2,7,4,3,-9,-8,2020-10-21 18:12:50.154
-2,11,2,7,4,3,-9,-3,2020-10-21 18:12:50.160
-5,-5,-8,-11,1,-11,-7,1,2020-10-21 18:12:50.166
-10,-59,-43,0,0,-4,6,1,2020-10-21 18:12:50.173
-10,-59,-43,0,0,-4,6,1,2020-10-21 18:12:50.181
-10,-59,-43,0,0,-4,6,0,2020-10-21 18:12:50.186
0,8,-7,2,-1,2,-3,6,2020-10-21 18:12:50.193
6,-9,45,12,8,1,0,6,2020-10-21 18:12:50.199
6,-9,45,12,8,1,0,-3,2020-10-21 18:12:50.204
-1,16,-1,-25,-4,-8,-7,0,2020-10-21 18:12:50.211
0,-6,-18,-18,-2,-5,-1,0,2020-10-21 18:12:50.218
0,-6,-18,-18,-2,-5,-1,-1,2020-10-21 18:12:50.223
-12,-58,-17,-12,-1,-6,22,-7,2020-10-21 18:12:50.230
-13,-30,-14,-1,-13,-9,-14,-7,2020-10-21 18:12:50.237
-13,-30,-14,-1,-13,-9,-14,-2,2020-10-21 18:12:50.248
5,14,17,1,-16,-1,-9,11,2020-10-21 18:12:50.254
8,-14,6,17,3,8,30,11,2020-10-21 18:12:50.260
8,-14,6,17,3,8,30,1,2020-10-21 18:12:50.267
3,-11,-34,8,-1,-10,-18,1,2020-10-21 18:12:50.273
3,-11,-34,8,-1,-10,-18,-1,2020-10-21 18:12:50.281
-5,-28,-75,-8,8,6,5,-2,2020-10-21 18:12:50.287
0,17,35,-24,0,-3,2,-2,2020-10-21 18:12:50.294
0,17,35,-24,0,-3,2,-2,2020-10-21 18:12:50.301
0,17,35,-24,0,-3,2,-4,2020-10-21 18:12:50.307
-1,-3,13,18,5,-2,-12,-5,2020-10-21 18:12:50.314
-6,8,-4,-20,0,13,0,-5,2020-10-21 18:12:50.320
-6,8,-4,-20,0,13,0,-5,2020-10-21 18:12:50.327
-6,8,-4,-20,0,13,0,2,2020-10-21 18:12:50.338
5,2,19,17,4,4,5,3,2020-10-21 18:12:50.348
1,7,16,10,4,0,7,-6,2020-10-21 18:12:50.357
-11,-13,-21,2,-4,-9,-7,-2,2020-10-21 18:12:50.364
-5,-59,-16,3,0,-1,0,-3,2020-10-21 18:12:50.370
-1,25,-6,3,-2,-4,-8,-3,2020-10-21 18:12:50.379
-1,25,-6,3,-2,-4,-8,-3,2020-10-21 18:12:50.393
-1,25,-6,3,-2,-4,-8,-2,2020-10-21 18:12:50.401
2,56,39,1,-2,-1,-1,-1,2020-10-21 18:12:50.407
-2,-20,-4,1,3,0,-1,-1,2020-10-21 18:12:50.414
-2,-20,-4,1,3,0,-1,-1,2020-10-21 18:12:50.420
-2,-20,-4,1,3,0,-1,1,2020-10-21 18:12:50.426
-2,-12,-8,3,3,5,-2,2,2020-10-21 18:12:50.433
4,29,-2,8,-6,-2,0,2,2020-10-21 18:12:50.439
4,29,-2,8,-6,-2,0,2,2020-10-21 18:12:50.445
4,29,-2,8,-6,-2,0,-4,2020-10-21 18:12:50.450
-9,-9,-11,-7,-4,-4,-3,-4,2020-10-21 18:12:50.456
-9,-9,-11,-7,-4,-4,-3,4,2020-10-21 18:12:50.462
2,14,31,-5,-1,-2,-9,-6,2020-10-21 18:12:50.469
-7,-6,1,-1,-10,-7,-8,-6,2020-10-21 18:12:50.475
-7,-6,1,-1,-10,-7,-8,3,2020-10-21 18:12:50.481
12,47,24,7,-2,-10,7,3,2020-10-21 18:12:50.487
12,47,24,7,-2,-10,7,-6,2020-10-21 18:12:50.494
-2,20,2,12,6,-12,-24,-6,2020-10-21 18:12:50.501
-2,20,2,12,6,-12,-24,-3,2020-10-21 18:12:50.509
-2,19,29,-4,1,2,5,-3,2020-10-21 18:12:50.515
-2,19,29,-4,1,2,5,-2,2020-10-21 18:12:50.520
-6,-20,-21,-1,3,3,-3,-7,2020-10-21 18:12:50.527
-10,-14,-12,-10,-4,4,-1,-7,2020-10-21 18:12:50.533
-10,-14,-12,-10,-4,4,-1,-7,2020-10-21 18:12:50.544
-10,-14,-12,-10,-4,4,-1,1,2020-10-21 18:12:50.550
-1,1,-2,2,2,2,1,1,2020-10-21 18:12:50.556
-1,1,-2,2,2,2,1,1,2020-10-21 18:12:50.562
-1,1,-2,2,2,2,1,4,2020-10-21 18:12:50.568
3,0,-4,-2,1,4,8,4,2020-10-21 18:12:50.575
3,0,-4,-2,1,4,8,-8,2020-10-21 18:12:50.581
-7,-56,-33,-10,-9,-4,-13,5,2020-10-21 18:12:50.586
4,-11,26,9,-3,5,10,3,2020-10-21 18:12:50.593
3,32,-5,5,0,1,4,3,2020-10-21 18:12:50.600
3,32,-5,5,0,1,4,-1,2020-10-21 18:12:50.605
-5,-20,-18,-4,1,-5,-6,-1,2020-10-21 18:12:50.612
0,-39,0,2,2,4,0,-1,2020-10-21 18:12:50.618
0,-39,0,2,2,4,0,-1,2020-10-21 18:12:50.624
0,-39,0,2,2,4,0,-2,2020-10-21 18:12:50.631
6,61,8,7,14,-2,-5,-2,2020-10-21 18:12:50.637
6,61,8,7,14,-2,-5,-4,2020-10-21 18:12:50.643
-8,-41,-3,6,2,1,1,-3,2020-10-21 18:12:50.650
-5,-34,11,2,-3,2,-2,-3,2020-10-21 18:12:50.655
-5,-34,11,2,-3,2,-2,-3,2020-10-21 18:12:50.661
-5,-34,11,2,-3,2,-2,-3,2020-10-21 18:12:50.669
-5,-34,11,2,-3,2,-2,-5,2020-10-21 18:12:50.675
0,-6,-14,10,-2,-3,-9,-5,2020-10-21 18:12:50.682
0,-6,-14,10,-2,-3,-9,-4,2020-10-21 18:12:50.688
-9,5,7,-10,-4,-1,2,-4,2020-10-21 18:12:50.701
-9,5,7,-10,-4,-1,2,-4,2020-10-21 18:12:50.708
-8,0,-6,-11,-7,-11,-8,-4,2020-10-21 18:12:50.714
-8,0,-6,-11,-7,-11,-8,-4,2020-10-21 18:12:50.720
-8,0,-6,-11,-7,-11,-8,1,2020-10-21 18:12:50.727
0,20,2,-2,4,1,-1,6,2020-10-21 18:12:50.733
9,29,17,0,-3,1,3,6,2020-10-21 18:12:50.744
9,29,17,0,-3,1,3,6,2020-10-21 18:12:50.750
4,-6,-7,-4,0,2,6,-5,2020-10-21 18:12:50.757
-6,-4,-8,-1,-1,-5,-5,0,2020-10-21 18:12:50.764
0,-14,-4,0,-4,-1,-4,1,2020-10-21 18:12:50.770
5,32,-13,11,-2,-2,0,1,2020-10-21 18:12:50.777
5,32,-13,11,-2,-2,0,-1,2020-10-21 18:12:50.783
-2,-23,-12,-4,14,0,-3,-4,2020-10-21 18:12:50.790
-5,-5,-4,-7,-3,1,0,-4,2020-10-21 18:12:50.797
-5,-5,-4,-7,-3,1,0,-4,2020-10-21 18:12:50.804
-5,-5,-4,-7,-3,1,0,-4,2020-10-21 18:12:50.811
-5,-5,-4,-7,-3,1,0,2,2020-10-21 18:12:50.817
6,20,-14,-10,-1,3,4,4,2020-10-21 18:12:50.824
9,20,38,-10,1,-3,2,-1,2020-10-21 18:12:50.831
-4,-26,11,-1,-3,0,-3,-1,2020-10-21 18:12:50.837
-4,-26,11,-1,-3,0,-3,2,2020-10-21 18:12:50.844
5,-5,13,5,-2,2,9,-1,2020-10-21 18:12:50.850
0,-24,-7,-1,8,2,2,-1,2020-10-21 18:12:50.856
0,-24,-7,-1,8,2,2,-1,2020-10-21 18:12:50.863
0,-24,-7,-1,8,2,2,-6,2020-10-21 18:12:50.869
-5,-4,-11,-4,-5,-7,-14,-4,2020-10-21 18:12:50.876
-5,-31,-7,-9,-7,-2,-3,-4,2020-10-21 18:12:50.882
-5,-31,-7,-9,-7,-2,-3,-4,2020-10-21 18:12:50.888
-3,-5,-15,6,-1,2,-8,2,2020-10-21 18:12:50.896
1,11,-2,-2,2,0,5,8,2020-10-21 18:12:50.902
16,48,48,18,7,1,3,8,2020-10-21 18:12:50.908
16,48,48,18,7,1,3,-6,2020-10-21 18:12:50.915
-9,-24,1,3,-3,-4,-7,-6,2020-10-21 18:12:50.922
-9,-24,1,3,-3,-4,-7,7,2020-10-21 18:12:50.928
9,38,36,8,-1,4,6,5,2020-10-21 18:12:50.936
3,8,4,-9,-6,-2,-2,5,2020-10-21 18:12:50.947
3,8,4,-9,-6,-2,-2,-1,2020-10-21 18:12:50.953
-5,-14,-9,-4,-4,-1,-1,-1,2020-10-21 18:12:50.960
-5,-14,-9,-4,-4,-1,-1,-3,2020-10-21 18:12:50.965
-6,-26,-32,17,9,3,-8,-1,2020-10-21 18:12:50.972
-2,-2,6,-10,-2,-7,-10,-1,2020-10-21 18:12:50.979
-2,-2,6,-10,-2,-7,-10,-3,2020-10-21 18:12:50.985
4,71,19,-5,-2,-2,-2,-3,2020-10-21 18:12:50.993
4,71,19,-5,-2,-2,-2,-1,2020-10-21 18:12:50.999
-4,-5,4,8,0,2,2,-1,2020-10-21 18:12:51.004
-4,-5,4,8,0,2,2,0,2020-10-21 18:12:51.011
7,36,18,-1,0,-3,0,0,2020-10-21 18:12:51.017
7,36,18,-1,0,-3,0,2,2020-10-21 18:12:51.029
0,-43,-11,2,-2,1,1,-3,2020-10-21 18:12:51.035
-4,-21,-14,1,-1,-2,-5,-3,2020-10-21 18:12:51.041
-4,-21,-14,1,-1,-2,-5,5,2020-10-21 18:12:51.048
2,-28,2,-2,-1,2,10,4,2020-10-21 18:12:51.053
1,-17,-13,3,0,8,7,4,2020-10-21 18:12:51.059
1,-17,-13,3,0,8,7,4,2020-10-21 18:12:51.065
1,-17,-13,3,0,8,7,0,2020-10-21 18:12:51.071
2,4,16,-2,9,3,-2,0,2020-10-21 18:12:51.078
2,4,16,-2,9,3,-2,-10,2020-10-21 18:12:51.084
-6,1,-15,-1,-9,-13,-28,-2,2020-10-21 18:12:51.091
-3,-4,-5,-10,-1,6,11,-2,2020-10-21 18:12:51.097
-3,-4,-5,-10,-1,6,11,-2,2020-10-21 18:12:51.103
-3,-4,-5,-10,-1,6,11,-3,2020-10-21 18:12:51.109
-8,-47,-26,-18,-5,2,-4,-4,2020-10-21 18:12:51.115
0,32,26,-8,-5,-5,-7,-4,2020-10-21 18:12:51.121
0,32,26,-8,-5,-5,-7,9,2020-10-21 18:12:51.128
6,-5,-7,5,4,4,9,-3,2020-10-21 18:12:51.134
-5,-17,-20,-1,-3,-1,2,-3,2020-10-21 18:12:51.140
-5,-17,-20,-1,-3,-1,2,-1,2020-10-21 18:12:51.151
-2,26,12,6,6,5,3,-5,2020-10-21 18:12:51.157
2,30,8,7,-5,-5,-13,-5,2020-10-21 18:12:51.163
2,30,8,7,-5,-5,-13,1,2020-10-21 18:12:51.169
4,0,-6,0,3,-4,-3,-4,2020-10-21 18:12:51.175
-9,-20,-17,-6,-4,-14,16,-4,2020-10-21 18:12:51.181
-9,-20,-17,-6,-4,-14,16,-4,2020-10-21 18:12:51.187
-9,-20,-17,-6,-4,-14,16,-6,2020-10-21 18:12:51.193
-7,-18,-8,-1,5,3,-16,-6,2020-10-21 18:12:51.199
-7,-18,-8,-1,5,3,-16,10,2020-10-21 18:12:51.205
6,-9,4,1,3,8,17,3,2020-10-21 18:12:51.211
4,7,-2,2,-5,1,-4,3,2020-10-21 18:12:51.217
4,7,-2,2,-5,1,-4,3,2020-10-21 18:12:51.223
4,7,-2,2,-5,1,-4,-1,2020-10-21 18:12:51.230
-3,-19,-10,-3,-5,-3,-12,-11,2020-10-21 18:12:51.235
-10,-29,-17,-13,-6,-9,-19,-11,2020-10-21 18:12:51.241
-10,-29,-17,-13,-6,-9,-19,-11,2020-10-21 18:12:51.247
-10,-29,-17,-13,-6,-9,-19,-4,2020-10-21 18:12:51.253
-8,-40,-18,0,5,3,-5,-4,2020-10-21 18:12:51.260
-8,-40,-18,0,5,3,-5,0,2020-10-21 18:12:51.266
0,0,-3,-6,0,4,6,1,2020-10-21 18:12:51.272
-2,-6,2,-4,-3,-4,-3,1,2020-10-21 18:12:51.279
-2,-6,2,-4,-3,-4,-3,0,2020-10-21 18:12:51.285
-2,-8,-6,4,3,1,1,0,2020-10-21 18:12:51.292
-2,-8,-6,4,3,1,1,1,2020-10-21 18:12:51.301
4,28,-2,-10,-6,-4,-2,1,2020-10-21 18:12:51.307
4,28,-2,-10,-6,-4,-2,4,2020-10-21 18:12:51.314
6,15,-16,-4,-4,1,2,4,2020-10-21 18:12:51.320
6,15,-16,-4,-4,1,2,3,2020-10-21 18:12:51.326
3,7,32,15,6,17,19,5,2020-10-21 18:12:51.332
9,-6,27,-20,-3,12,1,5,2020-10-21 18:12:51.344
9,-6,27,-20,-3,12,1,-7,2020-10-21 18:12:51.355
0,7,-14,-3,3,-4,-17,-19,2020-10-21 18:12:51.361
-17,-15,-38,-10,7,7,-14,9,2020-10-21 18:12:51.367
9,6,-8,10,-4,3,8,-2,2020-10-21 18:12:51.373
-3,-29,-49,8,-8,-10,-9,-2,2020-10-21 18:12:51.380
-3,-29,-49,8,-8,-10,-9,1,2020-10-21 18:12:51.386
-6,-10,-13,-9,2,7,30,1,2020-10-21 18:12:51.393
0,11,-17,0,0,-6,10,1,2020-10-21 18:12:51.400
0,11,-17,0,0,-6,10,-3,2020-10-21 18:12:51.405
5,-2,-2,9,-2,-10,-27,-3,2020-10-21 18:12:51.412
5,-2,-2,9,-2,-10,-27,5,2020-10-21 18:12:51.418
2,-6,36,23,0,-10,7,5,2020-10-21 18:12:51.423
2,-6,36,23,0,-10,7,12,2020-10-21 18:12:51.430
6,-6,8,0,-4,2,16,12,2020-10-21 18:12:51.436
6,-6,8,0,-4,2,16,6,2020-10-21 18:12:51.443
-2,-8,-4,0,-1,3,15,-2,2020-10-21 18:12:51.449
-4,-7,7,-3,-1,-5,-3,-2,2020-10-21 18:12:51.455
-4,-7,7,-3,-1,-5,-3,-2,2020-10-21 18:12:51.461
-4,-7,7,-3,-1,-5,-3,-2,2020-10-21 18:12:51.467
-6,-30,-16,-9,-3,1,5,-2,2020-10-21 18:12:51.473
-2,15,7,-4,-2,-9,4,-2,2020-10-21 18:12:51.478
-2,15,7,-4,-2,-9,4,-2,2020-10-21 18:12:51.485
-2,15,7,-4,-2,-9,4,0,2020-10-21 18:12:51.491
6,10,3,19,2,0,-22,0,2020-10-21 18:12:51.499
6,10,3,19,2,0,-22,1,2020-10-21 18:12:51.506
2,25,7,2,4,3,13,-9,2020-10-21 18:12:51.513
-1,15,14,15,9,2,-8,-9,2020-10-21 18:12:51.519
-1,15,14,15,9,2,-8,-3,2020-10-21 18:12:51.524
-3,-15,-5,-23,-5,-5,-16,-3,2020-10-21 18:12:51.531
-3,-15,-5,-23,-5,-5,-16,-6,2020-10-21 18:12:51.538
-7,6,3,-18,-6,-5,-3,-6,2020-10-21 18:12:51.544
-7,6,3,-18,-6,-5,-3,-2,2020-10-21 18:12:51.550
-6,-7,-35,-22,-13,-9,18,-2,2020-10-21 18:12:51.560
-6,-7,-35,-22,-13,-9,18,-1,2020-10-21 18:12:51.566
-3,0,-16,-14,-7,-1,-6,0,2020-10-21 18:12:51.572
-3,-11,9,9,4,6,-2,0,2020-10-21 18:12:51.578
-3,-11,9,9,4,6,-2,-5,2020-10-21 18:12:51.584
-6,-12,-19,-11,-2,-4,-8,-5,2020-10-21 18:12:51.590
-6,-12,-19,-11,-2,-4,-8,1,2020-10-21 18:12:51.597
-1,-15,-4,7,-1,-4,-13,1,2020-10-21 18:12:51.603
-1,-15,-4,7,-1,-4,-13,1,2020-10-21 18:12:51.609
-2,-3,-4,0,1,6,6,1,2020-10-21 18:12:51.615
-2,-3,-4,0,1,6,6,1,2020-10-21 18:12:51.621
-2,-3,-4,0,1,6,6,3,2020-10-21 18:12:51.628
6,7,16,1,-2,-9,-2,-5,2020-10-21 18:12:51.634
-9,-17,-21,9,0,0,-7,-5,2020-10-21 18:12:51.640
-9,-17,-21,9,0,0,-7,2,2020-10-21 18:12:51.646
5,7,4,-5,0,-2,-9,0,2020-10-21 18:12:51.652
0,10,-4,-8,-2,6,5,0,2020-10-21 18:12:51.665
0,10,-4,-8,-2,6,5,-4,2020-10-21 18:12:51.671
-2,5,14,13,4,1,-9,-7,2020-10-21 18:12:51.678
-8,-10,-9,-4,1,1,8,5,2020-10-21 18:12:51.684
15,86,41,5,-2,1,14,-4,2020-10-21 18:12:51.690
-4,8,9,-5,-4,-6,-10,-4,2020-10-21 18:12:51.696
-4,8,9,-5,-4,-6,-10,-4,2020-10-21 18:12:51.702
-4,8,9,-5,-4,-6,-10,5,2020-10-21 18:12:51.708
1,-39,-22,-4,-2,-3,1,5,2020-10-21 18:12:51.714
1,-39,-22,-4,-2,-3,1,-3,2020-10-21 18:12:51.720
1,4,22,6,0,-2,-5,-3,2020-10-21 18:12:51.726
1,4,22,6,0,-2,-5,4,2020-10-21 18:12:51.732
9,63,30,0,-2,-3,-5,-1,2020-10-21 18:12:51.738
-1,-12,14,-4,-2,1,-3,-6,2020-10-21 18:12:51.744
-7,-9,-16,14,5,7,-4,-2,2020-10-21 18:12:51.750
4,10,12,-2,0,0,6,-2,2020-10-21 18:12:51.756
4,10,12,-2,0,0,6,-2,2020-10-21 18:12:51.766
4,10,12,-2,0,0,6,-3,2020-10-21 18:12:51.772
-5,-28,-2,-14,-6,-6,-7,-3,2020-10-21 18:12:51.778
-5,-28,-2,-14,-6,-6,-7,0,2020-10-21 18:12:51.784
2,0,0,4,0,-2,-5,0,2020-10-21 18:12:51.790
-3,-21,4,-4,3,0,3,-9,2020-10-21 18:12:51.796
-7,1,16,0,-2,-2,0,-9,2020-10-21 18:12:51.802
-7,1,16,0,-2,-2,0,-9,2020-10-21 18:12:51.808
-7,1,16,0,-2,-2,0,4,2020-10-21 18:12:51.814
-1,4,-13,-4,0,0,2,4,2020-10-21 18:12:51.820
-1,4,-13,-4,0,0,2,1,2020-10-21 18:12:51.826
-3,11,-11,4,-4,-4,-3,-5,2020-10-21 18:12:51.832
-7,-49,-55,-22,-5,-5,-6,-5,2020-10-21 18:12:51.839
-7,-49,-55,-22,-5,-5,-6,-5,2020-10-21 18:12:51.845
-7,-49,-55,-22,-5,-5,-6,11,2020-10-21 18:12:51.852
4,-20,-8,0,1,10,12,-3,2020-10-21 18:12:51.857
2,31,-6,-29,-3,-4,-12,-3,2020-10-21 18:12:51.863
2,31,-6,-29,-3,-4,-12,-3,2020-10-21 18:12:51.869
2,31,-6,-29,-3,-4,-12,4,2020-10-21 18:12:51.875
1,-27,0,-3,-3,2,3,4,2020-10-21 18:12:51.881
1,-27,0,-3,-3,2,3,-13,2020-10-21 18:12:51.887
-5,-20,11,3,4,-7,-15,0,2020-10-21 18:12:51.893
2,26,33,13,0,1,3,0,2020-10-21 18:12:51.900
2,26,33,13,0,1,3,0,2020-10-21 18:12:51.909
2,26,33,13,0,1,3,0,2020-10-21 18:12:51.916
-23,-53,-63,-21,-6,1,-4,0,2020-10-21 18:12:51.922
-23,-53,-63,-21,-6,1,-4,0,2020-10-21 18:12:51.928
-23,-53,-63,-21,-6,1,-4,3,2020-10-21 18:12:51.934
4,-7,15,13,1,3,16,3,2020-10-21 18:12:51.940
4,-7,15,13,1,3,16,10,2020-10-21 18:12:51.946
2,-14,-19,-6,-2,4,12,3,2020-10-21 18:12:51.952
5,11,7,22,-12,-8,-5,3,2020-10-21 18:12:51.957
5,11,7,22,-12,-8,-5,3,2020-10-21 18:12:51.968
5,11,7,22,-12,-8,-5,5,2020-10-21 18:12:51.975
-1,-27,-17,-3,-2,4,53,8,2020-10-21 18:12:51.981
11,39,36,0,7,15,16,8,2020-10-21 18:12:51.994
11,39,36,0,7,15,16,2,2020-10-21 18:12:52.001
5,-30,-11,6,2,-11,-11,5,2020-10-21 18:12:52.007
5,33,21,13,2,0,-12,3,2020-10-21 18:12:52.014
10,36,47,20,8,-2,-7,3,2020-10-21 18:12:52.020
10,36,47,20,8,-2,-7,3,2020-10-21 18:12:52.026
10,36,47,20,8,-2,-7,-18,2020-10-21 18:12:52.032
-6,8,-5,-4,-13,-29,-103,3,2020-10-21 18:12:52.038
4,-10,-11,-5,1,1,-13,3,2020-10-21 18:12:52.044
4,-10,-11,-5,1,1,-13,-6,2020-10-21 18:12:52.050
-5,-25,-27,4,-3,-15,-7,-6,2020-10-21 18:12:52.057
-5,-25,-27,4,-3,-15,-7,-20,2020-10-21 18:12:52.067
-16,20,7,3,3,22,-41,-2,2020-10-21 18:12:52.073
-7,9,16,11,-2,3,43,-2,2020-10-21 18:12:52.080
-7,9,16,11,-2,3,43,-2,2020-10-21 18:12:52.087
-7,9,16,11,-2,3,43,0,2020-10-21 18:12:52.094
5,44,52,4,5,9,-6,-9,2020-10-21 18:12:52.100
-2,25,-5,-1,0,-16,-16,-9,2020-10-21 18:12:52.112
-2,25,-5,-1,0,-16,-16,7,2020-10-21 18:12:52.123
6,-14,17,-38,-5,2,0,7,2020-10-21 18:12:52.130
6,-14,17,-38,-5,2,0,9,2020-10-21 18:12:52.137
7,7,45,-9,0,3,8,9,2020-10-21 18:12:52.143
7,7,45,-9,0,3,8,-3,2020-10-21 18:12:52.151
-19,-18,-23,-6,-2,0,-2,1,2020-10-21 18:12:52.157
6,-5,6,18,2,-5,4,1,2020-10-21 18:12:52.163
6,-5,6,18,2,-5,4,1,2020-10-21 18:12:52.174
6,-5,6,18,2,-5,4,-8,2020-10-21 18:12:52.182
-8,2,-21,2,-4,-8,0,11,2020-10-21 18:12:52.192
10,-1,0,-4,1,5,15,11,2020-10-21 18:12:52.200
10,-1,0,-4,1,5,15,-3,2020-10-21 18:12:52.206
0,-32,-29,0,-2,-3,2,-8,2020-10-21 18:12:52.214
-4,3,-11,-4,-2,1,4,5,2020-10-21 18:12:52.219
-1,-9,-14,11,8,3,3,5,2020-10-21 18:12:52.225
-1,-9,-14,11,8,3,3,3,2020-10-21 18:12:52.232
5,16,-42,-15,-5,-1,-1,3,2020-10-21 18:12:52.238
5,16,-42,-15,-5,-1,-1,0,2020-10-21 18:12:52.243
-4,-11,-1,-9,-6,-3,1,2,2020-10-21 18:12:52.250
12,26,4,4,10,2,0,-5,2020-10-21 18:12:52.255
3,14,15,3,3,-6,-3,-5,2020-10-21 18:12:52.262
3,14,15,3,3,-6,-3,-6,2020-10-21 18:12:52.267
-5,-35,2,5,1,13,-21,-6,2020-10-21 18:12:52.273
-5,-35,2,5,1,13,-21,8,2020-10-21 18:12:52.281
5,9,28,-16,-3,12,27,8,2020-10-21 18:12:52.286
5,9,28,-16,-3,12,27,7,2020-10-21 18:12:52.293
10,21,2,11,2,-1,-4,7,2020-10-21 18:12:52.300
10,21,2,11,2,-1,-4,3,2020-10-21 18:12:52.306
0,-55,9,-4,-2,4,1,-5,2020-10-21 18:12:52.312
-7,-13,-34,-6,-2,-9,-4,-5,2020-10-21 18:12:52.319
-7,-13,-34,-6,-2,-9,-4,-5,2020-10-21 18:12:52.327
-7,-13,-34,-6,-2,-9,-4,-5,2020-10-21 18:12:52.334
-7,-13,-34,-6,-2,-9,-4,0,2020-10-21 18:12:52.341
-1,-4,-6,0,-1,-1,3,0,2020-10-21 18:12:52.357
-1,-4,-6,0,-1,-1,3,1,2020-10-21 18:12:52.364
-2,3,22,-4,8,18,29,-12,2020-10-21 18:12:52.375
-11,-11,-7,-28,3,27,27,9,2020-10-21 18:12:52.382
6,-2,5,-2,-10,7,-1,4,2020-10-21 18:12:52.389
6,44,24,-4,-4,1,20,6,2020-10-21 18:12:52.397
8,-22,-24,-2,-3,23,-22,-11,2020-10-21 18:12:52.412
-21,-36,-17,-9,-8,-34,-7,-6,2020-10-21 18:12:52.423
-1,59,-17,31,-3,-16,-20,4,2020-10-21 18:12:52.431
2,-32,-28,-4,5,0,8,-7,2020-10-21 18:12:52.439
10,21,34,-1,2,-5,-32,-7,2020-10-21 18:12:52.448
10,21,34,-1,2,-5,-32,7,2020-10-21 18:12:52.458
2,12,-21,-1,0,-24,3,11,2020-10-21 18:12:52.464
17,24,-1,-27,-7,10,-1,11,2020-10-21 18:12:52.471
17,24,-1,-27,-7,10,-1,11,2020-10-21 18:12:52.478
17,24,-1,-27,-7,10,-1,-6,2020-10-21 18:12:52.485
-5,-9,29,1,13,-5,-15,-6,2020-10-21 18:12:52.503
-5,-9,29,1,13,-5,-15,5,2020-10-21 18:12:52.513
7,7,-7,-1,-11,-6,6,-3,2020-10-21 18:12:52.519
-3,-20,-35,4,0,3,2,-3,2020-10-21 18:12:52.525
-3,-20,-35,4,0,3,2,8,2020-10-21 18:12:52.532
0,-6,-14,20,-1,11,35,8,2020-10-21 18:12:52.538
0,-6,-14,20,-1,11,35,8,2020-10-21 18:12:52.550
0,-6,-14,20,-1,11,35,-2,2020-10-21 18:12:52.556
-1,-39,1,9,3,-2,-19,-2,2020-10-21 18:12:52.566
-1,-39,1,9,3,-2,-19,0,2020-10-21 18:12:52.577
0,27,-13,5,-5,0,0,-9,2020-10-21 18:12:52.583
-8,3,0,-1,4,-9,2,-9,2020-10-21 18:12:52.589
-8,3,0,-1,4,-9,2,-6,2020-10-21 18:12:52.597
-4,-5,-4,0,4,1,-26,-6,2020-10-21 18:12:52.603
-4,-5,-4,0,4,1,-26,-7,2020-10-21 18:12:52.611
2,20,-20,-2,-2,-8,0,11,2020-10-21 18:12:52.620
9,11,4,-3,-1,3,15,4,2020-10-21 18:12:52.626
-8,10,-14,-3,-1,1,6,4,2020-10-21 18:12:52.633
-8,10,-14,-3,-1,1,6,-4,2020-10-21 18:12:52.639
-3,-20,19,-13,-13,-6,-40,-4,2020-10-21 18:12:52.646
-3,-20,19,-13,-13,-6,-40,0,2020-10-21 18:12:52.654
2,13,-24,13,2,6,10,4,2020-10-21 18:12:52.662
13,32,-12,-12,0,-24,15,6,2020-10-21 18:12:52.669
2,4,-1,-14,-15,-8,12,-7,2020-10-21 18:12:52.675
-13,-10,8,-4,-2,10,22,-7,2020-10-21 18:12:52.681
-13,-10,8,-4,-2,10,22,-6,2020-10-21 18:12:52.688
-4,2,4,-17,-9,-13,-25,-6,2020-10-21 18:12:52.695
-4,2,4,-17,-9,-13,-25,9,2020-10-21 18:12:52.700
7,3,11,13,17,13,10,9,2020-10-21 18:12:52.706
7,3,11,13,17,13,10,-17,2020-10-21 18:12:52.714
-17,4,44,24,3,53,-16,-4,2020-10-21 18:12:52.720
5,11,-3,-10,-4,-15,-31,7,2020-10-21 18:12:52.726
11,7,-8,6,1,6,6,-1,2020-10-21 18:12:52.733
-11,-22,-11,6,-1,9,4,-1,2020-10-21 18:12:52.740
-11,-22,-11,6,-1,9,4,-1,2020-10-21 18:12:52.746
-11,-22,-11,6,-1,9,4,-6,2020-10-21 18:12:52.758
-13,-55,-30,-12,-2,-21,-19,6,2020-10-21 18:12:52.764
8,3,-41,4,8,2,14,0,2020-10-21 18:12:52.771
-6,-23,-8,-5,-3,-10,4,6,2020-10-21 18:12:52.782
2,-13,-19,-1,-3,8,-24,6,2020-10-21 18:12:52.788
2,-13,-19,-1,-3,8,-24,1,2020-10-21 18:12:52.797
4,14,38,25,14,13,27,1,2020-10-21 18:12:52.803
4,14,38,25,14,13,27,4,2020-10-21 18:12:52.811
2,-6,-8,-6,-8,3,-1,4,2020-10-21 18:12:52.817
0,-10,-6,-10,8,16,35,4,2020-10-21 18:12:52.824
0,-10,-6,-10,8,16,35,-4,2020-10-21 18:12:52.831
-1,-20,-20,6,10,-8,-15,-4,2020-10-21 18:12:52.837
-1,-20,-20,6,10,-8,-15,-4,2020-10-21 18:12:52.844
-3,10,-5,-14,-14,-2,-21,-4,2020-10-21 18:12:52.851
-3,10,-5,-14,-14,-2,-21,-3,2020-10-21 18:12:52.857
-2,-5,54,-21,-9,-2,-17,-3,2020-10-21 18:12:52.865
-2,-5,54,-21,-9,-2,-17,-5,2020-10-21 18:12:52.871
0,27,-13,-4,-1,-1,60,2,2020-10-21 18:12:52.878
3,38,29,-9,6,-54,-24,2,2020-10-21 18:12:52.884
3,38,29,-9,6,-54,-24,27,2020-10-21 18:12:52.890
22,22,31,34,15,19,50,27,2020-10-21 18:12:52.896
22,22,31,34,15,19,50,-9,2020-10-21 18:12:52.902
-13,-29,-9,-25,-22,35,43,-9,2020-10-21 18:12:52.909
-13,-29,-9,-25,-22,35,43,5,2020-10-21 18:12:52.915
5,8,-34,10,0,6,-16,5,2020-10-21 18:12:52.922
5,8,-34,10,0,6,-16,-5,2020-10-21 18:12:52.928
-8,38,-27,-16,-21,-12,-21,-16,2020-10-21 18:12:52.934
2,27,21,9,-1,-8,-44,-16,2020-10-21 18:12:52.940
2,27,21,9,-1,-8,-44,-16,2020-10-21 18:12:52.950
2,27,21,9,-1,-8,-44,2,2020-10-21 18:12:52.959
4,-38,-10,5,-7,-20,-18,19,2020-10-21 18:12:52.966
23,28,19,20,10,0,17,19,2020-10-21 18:12:52.972
23,28,19,20,10,0,17,18,2020-10-21 18:12:52.983
20,-25,-2,-3,2,14,18,-26,2020-10-21 18:12:52.989
-31,3,16,6,-3,-11,-32,-4,2020-10-21 18:12:52.995
-19,-13,0,2,-10,-11,-2,-4,2020-10-21 18:12:53.001
-19,-13,0,2,-10,-11,-2,-4,2020-10-21 18:12:53.017
-19,-13,0,2,-10,-11,-2,5,2020-10-21 18:12:53.026
2,14,0,1,-5,-9,3,-1,2020-10-21 18:12:53.033
4,3,37,-21,-9,1,-22,-1,2020-10-21 18:12:53.039
4,3,37,-21,-9,1,-22,-4,2020-10-21 18:12:53.045
-3,-3,24,0,6,6,-4,3,2020-10-21 18:12:53.052
1,-41,-3,3,-8,-5,8,-8,2020-10-21 18:12:53.057
-8,-10,-50,-7,-7,-7,-6,-8,2020-10-21 18:12:53.064
-8,-10,-50,-7,-7,-7,-6,2,2020-10-21 18:12:53.070
8,15,-20,-2,-1,-10,-5,2,2020-10-21 18:12:53.076
8,15,-20,-2,-1,-10,-5,-5,2020-10-21 18:12:53.083
-3,9,7,2,-9,0,9,-5,2020-10-21 18:12:53.089
-3,9,7,2,-9,0,9,-4,2020-10-21 18:12:53.096
-6,-9,-8,-12,-5,7,1,-4,2020-10-21 18:12:53.102
-6,-9,-8,-12,-5,7,1,-8,2020-10-21 18:12:53.108
-8,-13,-29,0,-4,-5,-10,-1,2020-10-21 18:12:53.115
2,-9,-23,-1,-1,-3,-4,-1,2020-10-21 18:12:53.128
2,-9,-23,-1,-1,-3,-4,-5,2020-10-21 18:12:53.134
-10,6,-40,17,3,-2,-3,-2,2020-10-21 18:12:53.141
4,-15,6,0,1,-1,0,-2,2020-10-21 18:12:53.148
4,-15,6,0,1,-1,0,-4,2020-10-21 18:12:53.154
-6,4,7,8,7,-2,-1,-4,2020-10-21 18:12:53.159
-6,4,7,8,7,-2,-1,-4,2020-10-21 18:12:53.166
-6,4,7,8,7,-2,-1,-1,2020-10-21 18:12:53.172
0,-2,9,3,-3,-2,-4,-2,2020-10-21 18:12:53.179
-6,-3,-3,-4,-5,-10,-6,-2,2020-10-21 18:12:53.190
-6,-3,-3,-4,-5,-10,-6,3,2020-10-21 18:12:53.197
2,-12,12,1,0,-1,1,-6,2020-10-21 18:12:53.203
-5,-2,-3,5,7,2,-6,-6,2020-10-21 18:12:53.209
-5,-2,-3,5,7,2,-6,4,2020-10-21 18:12:53.216
17,48,42,7,3,6,9,4,2020-10-21 18:12:53.222
17,48,42,7,3,6,9,1,2020-10-21 18:12:53.229
4,27,30,-6,3,5,6,1,2020-10-21 18:12:53.234
4,27,30,-6,3,5,6,1,2020-10-21 18:12:53.240
4,27,30,-6,3,5,6,3,2020-10-21 18:12:53.247
-6,-28,-11,20,9,1,3,-6,2020-10-21 18:12:53.254
-5,-5,-13,-8,-8,0,-9,-4,2020-10-21 18:12:53.260
-11,-11,-15,-5,-1,-1,5,-4,2020-10-21 18:12:53.266
-11,-11,-15,-5,-1,-1,5,-4,2020-10-21 18:12:53.272
-11,-11,-15,-5,-1,-1,5,-5,2020-10-21 18:12:53.279
-1,10,-9,-43,-6,-1,-8,-5,2020-10-21 18:12:53.285
-1,10,-9,-43,-6,-1,-8,3,2020-10-21 18:12:53.291
10,4,-9,-2,2,-1,0,4,2020-10-21 18:12:53.297
0,-13,-6,3,-3,-1,-1,4,2020-10-21 18:12:53.303
0,-13,-6,3,-3,-1,-1,4,2020-10-21 18:12:53.309
0,-13,-6,3,-3,-1,-1,-8,2020-10-21 18:12:53.316
-7,3,-16,-13,-13,-18,-13,9,2020-10-21 18:12:53.322
4,28,28,-1,5,0,5,9,2020-10-21 18:12:53.328
4,28,28,-1,5,0,5,-1,2020-10-21 18:12:53.334
2,-17,-11,-1,-1,-6,8,-1,2020-10-21 18:12:53.340
2,-17,-11,-1,-1,-6,8,-1,2020-10-21 18:12:53.346
2,-17,-11,-1,-1,-6,8,-4,2020-10-21 18:12:53.352
4,-4,18,-4,-2,-1,8,2,2020-10-21 18:12:53.358
4,22,15,3,5,4,4,2,2020-10-21 18:12:53.365
4,22,15,3,5,4,4,-4,2020-10-21 18:12:53.371
-6,-30,-23,-4,-2,-2,-4,-4,2020-10-21 18:12:53.377
-6,-30,-23,-4,-2,-2,-4,6,2020-10-21 18:12:53.382
13,11,1,15,2,1,8,6,2020-10-21 18:12:53.392
13,11,1,15,2,1,8,3,2020-10-21 18:12:53.400
-5,-16,9,3,0,-1,-4,3,2020-10-21 18:12:53.407
-5,-16,9,3,0,-1,-4,-6,2020-10-21 18:12:53.414
-5,6,-1,-4,1,-7,-20,-8,2020-10-21 18:12:53.420
-9,-26,-5,9,-9,1,6,-8,2020-10-21 18:12:53.426
-9,-26,-5,9,-9,1,6,-5,2020-10-21 18:12:53.432
-11,-14,3,16,-1,-16,14,-5,2020-10-21 18:12:53.438
-11,-14,3,16,-1,-16,14,-5,2020-10-21 18:12:53.445
-11,-14,3,16,-1,-16,14,-2,2020-10-21 18:12:53.452
-3,-24,-32,0,0,3,0,-2,2020-10-21 18:12:53.465
-3,-24,-32,0,0,3,0,-8,2020-10-21 18:12:53.471
-16,-12,6,-5,-1,-4,-13,0,2020-10-21 18:12:53.478
9,10,-2,-1,3,3,-2,0,2020-10-21 18:12:53.484
9,10,-2,-1,3,3,-2,11,2020-10-21 18:12:53.491
7,-13,-15,-3,1,-3,15,11,2020-10-21 18:12:53.499
7,-13,-15,-3,1,-3,15,-6,2020-10-21 18:12:53.506
-9,-15,-1,-2,1,-7,11,-6,2020-10-21 18:12:53.512
-9,-15,-1,-2,1,-7,11,-8,2020-10-21 18:12:53.520
-18,-17,-8,3,-3,-1,-13,-8,2020-10-21 18:12:53.528
-18,-17,-8,3,-3,-1,-13,0,2020-10-21 18:12:53.534
2,22,7,3,2,4,4,1,2020-10-21 18:12:53.540
1,38,14,8,8,10,-3,1,2020-10-21 18:12:53.546
1,38,14,8,8,10,-3,-3,2020-10-21 18:12:53.552
0,8,-16,1,5,6,-11,-2,2020-10-21 18:12:53.559
20,-11,0,-1,-4,-6,-11,-2,2020-10-21 18:12:53.564
20,-11,0,-1,-4,-6,-11,-2,2020-10-21 18:12:53.570
20,-11,0,-1,-4,-6,-11,-6,2020-10-21 18:12:53.576
-12,23,-6,-1,-4,-9,-14,1,2020-10-21 18:12:53.582
6,-6,-9,-2,1,3,-5,-6,2020-10-21 18:12:53.592
-8,-20,4,-9,-5,-3,-6,6,2020-10-21 18:12:53.598
0,0,1,4,5,-1,3,6,2020-10-21 18:12:53.604
0,0,1,4,5,-1,3,-12,2020-10-21 18:12:53.610
-14,-36,-11,11,-3,-9,-12,-12,2020-10-21 18:12:53.617
-14,-36,-11,11,-3,-9,-12,3,2020-10-21 18:12:53.623
2,-5,-10,-19,-7,2,3,3,2020-10-21 18:12:53.630
2,-5,-10,-19,-7,2,3,3,2020-10-21 18:12:53.635
7,14,-11,-18,-4,10,29,9,2020-10-21 18:12:53.642
11,39,25,4,20,6,7,-10,2020-10-21 18:12:53.649
-10,-22,1,-4,0,1,-6,-6,2020-10-21 18:12:53.655
-2,0,-4,2,-7,-4,-10,-6,2020-10-21 18:12:53.661
-2,0,-4,2,-7,-4,-10,-6,2020-10-21 18:12:53.666
-2,0,-4,2,-7,-4,-10,3,2020-10-21 18:12:53.672
10,18,7,-1,-8,-2,-5,-2,2020-10-21 18:12:53.679
-6,-5,8,7,1,-1,0,-2,2020-10-21 18:12:53.684
-6,-5,8,7,1,-1,0,-2,2020-10-21 18:12:53.690
-6,-5,8,7,1,-1,0,1,2020-10-21 18:12:53.697
3,-8,-6,-7,-6,-1,-5,-5,2020-10-21 18:12:53.703
-6,-19,-20,-5,-4,-7,-9,-5,2020-10-21 18:12:53.709
-6,-19,-20,-5,-4,-7,-9,-2,2020-10-21 18:12:53.715
-6,-25,-8,-6,1,-1,-4,0,2020-10-21 18:12:53.721
0,0,1,9,-2,3,3,0,2020-10-21 18:12:53.728
0,0,1,9,-2,3,3,0,2020-10-21 18:12:53.734
5,32,20,-2,0,3,9,3,2020-10-21 18:12:53.739
6,34,1,0,-5,1,5,3,2020-10-21 18:12:53.746
6,34,1,0,-5,1,5,-1,2020-10-21 18:12:53.752
-1,7,0,-1,0,-1,-7,-1,2020-10-21 18:12:53.758
-1,7,0,-1,0,-1,-7,-2,2020-10-21 18:12:53.764
-7,-20,-9,-7,-3,-2,-5,-2,2020-10-21 18:12:53.770
-7,-20,-9,-7,-3,-2,-5,1,2020-10-21 18:12:53.776
-2,-4,8,-1,-4,-2,-1,1,2020-10-21 18:12:53.783
-2,-4,8,-1,-4,-2,-1,1,2020-10-21 18:12:53.792
-2,-4,8,-1,-4,-2,-1,0,2020-10-21 18:12:53.798
-1,-10,-1,0,0,1,3,0,2020-10-21 18:12:53.804
-1,-10,-1,0,0,1,3,0,2020-10-21 18:12:53.810
-1,-10,-1,0,0,1,3,5,2020-10-21 18:12:53.822
19,44,16,11,5,3,2,-4,2020-10-21 18:12:53.830
-7,10,10,1,1,0,1,3,2020-10-21 18:12:53.836
9,-19,2,3,2,2,2,3,2020-10-21 18:12:53.842
9,-19,2,3,2,2,2,3,2020-10-21 18:12:53.848
9,-19,2,3,2,2,2,-4,2020-10-21 18:12:53.854
-5,-6,-8,-4,-3,-4,-4,0,2020-10-21 18:12:53.860
-7,-20,-10,-1,-1,-1,2,0,2020-10-21 18:12:53.866
-7,-20,-10,-1,-1,-1,2,-4,2020-10-21 18:12:53.872
6,-19,-14,-3,-1,-2,-2,-4,2020-10-21 18:12:53.878
6,-19,-14,-3,-1,-2,-2,2,2020-10-21 18:12:53.884
5,-11,-6,-14,-1,1,-1,2,2020-10-21 18:12:53.890
5,-11,-6,-14,-1,1,-1,3,2020-10-21 18:12:53.896
6,5,8,2,2,-1,1,3,2020-10-21 18:12:53.902
6,5,8,2,2,-1,1,3,2020-10-21 18:12:53.908
6,5,8,2,2,-1,1,1,2020-10-21 18:12:53.915
-4,-9,-9,-5,-4,-2,0,-8,2020-10-21 18:12:53.921
-10,15,-11,4,-1,-3,-4,-8,2020-10-21 18:12:53.927
-10,15,-11,4,-1,-3,-4,-8,2020-10-21 18:12:53.933
-10,15,-11,4,-1,-3,-4,-8,2020-10-21 18:12:53.939
-10,15,-11,4,-1,-3,-4,5,2020-10-21 18:12:53.945
3,-5,0,-1,0,2,3,5,2020-10-21 18:12:53.951
3,-5,0,-1,0,2,3,1,2020-10-21 18:12:53.957
-1,-2,2,2,0,0,0,1,2020-10-21 18:12:53.963
-1,-2,2,2,0,0,0,1,2020-10-21 18:12:53.969
-6,-28,-10,-7,0,-1,-1,1,2020-10-21 18:12:53.977
-6,-28,-10,-7,0,-1,-1,0,2020-10-21 18:12:53.983
-3,-30,7,3,-1,-2,1,0,2020-10-21 18:12:53.989
-3,-30,7,3,-1,-2,1,-4,2020-10-21 18:12:53.999
-4,-7,-3,3,1,-2,-4,-3,2020-10-21 18:12:54.004
-2,3,0,3,-2,-2,-2,-3,2020-10-21 18:12:54.010
-2,3,0,3,-2,-2,-2,2,2020-10-21 18:12:54.017
7,18,-4,-2,-1,-2,-2,2,2020-10-21 18:12:54.023
7,18,-4,-2,-1,-2,-2,2,2020-10-21 18:12:54.029
7,18,-4,-2,-1,-2,-2,-1,2020-10-21 18:12:54.037
1,2,-4,-3,-3,0,-1,-6,2020-10-21 18:12:54.043
-4,-9,-11,4,-1,-2,-5,-6,2020-10-21 18:12:54.049
-4,-9,-11,4,-1,-2,-5,-3,2020-10-21 18:12:54.055
-5,14,5,-7,-4,-4,-3,-2,2020-10-21 18:12:54.061
-4,17,11,-8,0,0,-1,-2,2020-10-21 18:12:54.067
-4,17,11,-8,0,0,-1,-2,2020-10-21 18:12:54.073
-4,17,11,-8,0,0,-1,-3,2020-10-21 18:12:54.079
-8,-8,-5,-5,-3,1,0,-3,2020-10-21 18:12:54.085
-8,-8,-5,-5,-3,1,0,-1,2020-10-21 18:12:54.091
-6,-12,-15,-7,-6,0,1,-3,2020-10-21 18:12:54.097
1,2,-5,1,5,1,-4,-3,2020-10-21 18:12:54.103
1,2,-5,1,5,1,-4,-3,2020-10-21 18:12:54.109
1,2,-5,1,5,1,-4,-3,2020-10-21 18:12:54.115
-4,-18,-1,-4,0,-2,-3,3,2020-10-21 18:12:54.121
0,-14,7,-19,-3,1,5,3,2020-10-21 18:12:54.128
0,-14,7,-19,-3,1,5,3,2020-10-21 18:12:54.135
0,-14,7,-19,-3,1,5,-3,2020-10-21 18:12:54.140
-4,-6,-8,-11,-4,-4,-5,-1,2020-10-21 18:12:54.147
-2,9,12,6,2,-2,1,2,2020-10-21 18:12:54.153
0,-4,-9,-2,-1,-1,0,4,2020-10-21 18:12:54.165
7,13,11,-8,-5,-1,3,4,2020-10-21 18:12:54.171
7,13,11,-8,-5,-1,3,5,2020-10-21 18:12:54.178
8,28,17,3,3,3,3,-1,2020-10-21 18:12:54.185
-1,-7,-14,9,1,-2,-3,-1,2020-10-21 18:12:54.191
-1,-7,-14,9,1,-2,-3,3,2020-10-21 18:12:54.200
6,13,-1,0,-12,2,2,3,2020-10-21 18:12:54.206
6,13,-1,0,-12,2,2,0,2020-10-21 18:12:54.213
-5,-25,-15,1,-2,1,3,-2,2020-10-21 18:12:54.219
-7,-1,-16,-7,-2,-3,-6,-2,2020-10-21 18:12:54.225
-7,-1,-16,-7,-2,-3,-6,-2,2020-10-21 18:12:54.231
-7,-1,-16,-7,-2,-3,-6,-5,2020-10-21 18:12:54.237
-11,-24,10,-1,-3,-2,-2,2,2020-10-21 18:12:54.243
4,22,-1,2,3,1,2,2,2020-10-21 18:12:54.249
4,22,-1,2,3,1,2,0,2020-10-21 18:12:54.255
4,1,-3,2,4,-1,-1,-1,2020-10-21 18:12:54.260
-2,-9,-1,-2,-1,2,2,-1,2020-10-21 18:12:54.266
-2,-9,-1,-2,-1,2,2,1,2020-10-21 18:12:54.273
2,14,6,1,-3,-1,2,2,2020-10-21 18:12:54.279
5,6,10,3,3,-1,-1,2,2020-10-21 18:12:54.285
5,6,10,3,3,-1,-1,2,2020-10-21 18:12:54.292
5,6,10,3,3,-1,-1,10,2020-10-21 18:12:54.298
12,30,24,8,3,4,7,-3,2020-10-21 18:12:54.304
-3,4,2,4,5,-1,-3,-3,2020-10-21 18:12:54.310
-3,4,2,4,5,-1,-3,-1,2020-10-21 18:12:54.317
7,11,11,4,0,0,2,-1,2020-10-21 18:12:54.323
7,11,11,4,0,0,2,-1,2020-10-21 18:12:54.329
7,11,11,4,0,0,2,-3,2020-10-21 18:12:54.335
-3,0,14,-3,0,0,-1,-1,2020-10-21 18:12:54.340
-4,-32,-29,-3,-2,0,-2,-1,2020-10-21 18:12:54.347
-4,-32,-29,-3,-2,0,-2,-2,2020-10-21 18:12:54.353
-3,-9,-7,-7,-5,-1,3,-2,2020-10-21 18:12:54.359
-3,-9,-7,-7,-5,-1,3,1,2020-10-21 18:12:54.365
-2,-51,17,-4,2,-1,1,1,2020-10-21 18:12:54.371
-2,-51,17,-4,2,-1,1,-3,2020-10-21 18:12:54.377
-3,17,4,-2,-2,-1,-4,-3,2020-10-21 18:12:54.384
-3,17,4,-2,-2,-1,-4,-4,2020-10-21 18:12:54.390
-4,-18,2,0,8,1,0,-4,2020-10-21 18:12:54.396
-4,-18,2,0,8,1,0,-6,2020-10-21 18:12:54.405
-9,-9,-11,-3,-7,-3,-4,-6,2020-10-21 18:12:54.412
-9,-9,-11,-3,-7,-3,-4,1,2020-10-21 18:12:54.418
-2,17,6,0,-2,1,-1,1,2020-10-21 18:12:54.424
-2,17,6,0,-2,1,-1,-3,2020-10-21 18:12:54.431
0,0,0,4,3,-1,-2,0,2020-10-21 18:12:54.438
5,33,-4,-6,-5,-3,0,0,2020-10-21 18:12:54.444
5,33,-4,-6,-5,-3,0,5,2020-10-21 18:12:54.450
8,3,0,1,-1,-2,1,5,2020-10-21 18:12:54.456
8,3,0,1,-1,-2,1,-6,2020-10-21 18:12:54.461
-7,0,-6,-2,-4,-7,-6,-6,2020-10-21 18:12:54.468
-7,0,-6,-2,-4,-7,-6,-3,2020-10-21 18:12:54.475
0,10,9,-2,-4,-2,-2,1,2020-10-21 18:12:54.481
0,-6,-4,-1,0,0,-1,1,2020-10-21 18:12:54.487
0,-6,-4,-1,0,0,-1,1,2020-10-21 18:12:54.493
0,-6,-4,-1,0,0,-1,1,2020-10-21 18:12:54.500
3,-1,2,8,4,2,2,1,2020-10-21 18:12:54.508
3,-1,2,8,4,2,2,-2,2020-10-21 18:12:54.515
-2,-16,-1,-4,-1,0,-2,3,2020-10-21 18:12:54.521
5,3,1,-1,-1,2,3,3,2020-10-21 18:12:54.533
5,3,1,-1,-1,2,3,-2,2020-10-21 18:12:54.540
-7,-7,-11,-1,2,-1,1,-7,2020-10-21 18:12:54.545
-10,-24,-12,-1,-1,-2,-5,-7,2020-10-21 18:12:54.552
-10,-24,-12,-1,-1,-2,-5,6,2020-10-21 18:12:54.558
9,1,-1,-1,-2,1,3,0,2020-10-21 18:12:54.564
0,11,5,-3,-2,-1,1,-2,2020-10-21 18:12:54.570
-3,-3,-3,3,-1,-1,-2,-2,2020-10-21 18:12:54.576
-3,-3,-3,3,-1,-1,-2,1,2020-10-21 18:12:54.581
2,-3,-2,-2,-4,-1,0,1,2020-10-21 18:12:54.588
2,-3,-2,-2,-4,-1,0,1,2020-10-21 18:12:54.594
0,-9,-5,8,5,1,0,-1,2020-10-21 18:12:54.600
-1,2,-11,3,-4,-6,-2,-1,2020-10-21 18:12:54.610
-1,2,-11,3,-4,-6,-2,-7,2020-10-21 18:12:54.616
3,2,-10,7,-4,-5,-4,-2,2020-10-21 18:12:54.623
-7,3,14,0,2,1,-1,-1,2020-10-21 18:12:54.630
-1,12,-20,-13,-4,-4,-4,-1,2020-10-21 18:12:54.636
-1,12,-20,-13,-4,-4,-4,5,2020-10-21 18:12:54.642
14,50,26,4,3,3,2,5,2020-10-21 18:12:54.649
14,50,26,4,3,3,2,10,2020-10-21 18:12:54.654
2,-41,25,13,3,5,11,-5,2020-10-21 18:12:54.660
-12,-25,-3,-22,-4,-4,-3,-5,2020-10-21 18:12:54.666
-12,-25,-3,-22,-4,-4,-3,-5,2020-10-21 18:12:54.672
-12,-25,-3,-22,-4,-4,-3,0,2020-10-21 18:12:54.678
-1,16,7,2,-1,-1,0,4,2020-10-21 18:12:54.684
3,-23,-6,-6,4,-1,2,4,2020-10-21 18:12:54.690
3,-23,-6,-6,4,-1,2,4,2020-10-21 18:12:54.697
3,-23,-6,-6,4,-1,2,-7,2020-10-21 18:12:54.702
-12,14,4,-9,-4,-7,-8,-1,2020-10-21 18:12:54.708
6,23,-1,-5,-4,-2,-4,1,2020-10-21 18:12:54.714
-2,-3,-17,-3,0,-1,0,-4,2020-10-21 18:12:54.721
-4,-2,-13,16,2,2,-1,-4,2020-10-21 18:12:54.726
-4,-2,-13,16,2,2,-1,-4,2020-10-21 18:12:54.733
-4,-2,-13,16,2,2,-1,1,2020-10-21 18:12:54.739
-3,0,3,-7,1,-4,-5,-3,2020-10-21 18:12:54.745
-2,-11,-14,11,-2,1,1,-3,2020-10-21 18:12:54.751
-2,-11,-14,11,-2,1,1,-5,2020-10-21 18:12:54.757
-4,-9,-2,-1,-6,-14,-31,-5,2020-10-21 18:12:54.763
-7,-35,-8,-7,-2,-2,3,-5,2020-10-21 18:12:54.769
-7,-35,-8,-7,-2,-2,3,-2,2020-10-21 18:12:54.775
-2,-13,2,9,1,-6,-13,0,2020-10-21 18:12:54.781
-7,-5,11,4,0,0,3,0,2020-10-21 18:12:54.787
-7,-5,11,4,0,0,3,0,2020-10-21 18:12:54.792
-7,-5,11,4,0,0,3,-2,2020-10-21 18:12:54.799
3,10,20,23,3,0,-12,6,2020-10-21 18:12:54.805
9,4,-6,2,-1,2,3,6,2020-10-21 18:12:54.814
9,4,-6,2,-1,2,3,2,2020-10-21 18:12:54.821
0,24,9,2,2,-4,0,2,2020-10-21 18:12:54.826
0,24,9,2,2,-4,0,-9,2020-10-21 18:12:54.833
-16,-11,-40,-5,-9,-7,-14,-9,2020-10-21 18:12:54.841
-16,-11,-40,-5,-9,-7,-14,12,2020-10-21 18:12:54.847
10,16,13,-9,2,0,48,12,2020-10-21 18:12:54.854
10,16,13,-9,2,0,48,4,2020-10-21 18:12:54.860
-5,9,8,-1,3,-2,7,-8,2020-10-21 18:12:54.866
-19,-9,3,5,-2,3,-30,-8,2020-10-21 18:12:54.873
-19,-9,3,5,-2,3,-30,-2,2020-10-21 18:12:54.879
7,-10,-2,-5,-3,0,-4,-2,2020-10-21 18:12:54.886
7,-10,-2,-5,-3,0,-4,10,2020-10-21 18:12:54.900
7,-18,-5,-3,0,8,2,-5,2020-10-21 18:12:54.906
1,19,13,4,-3,-3,-3,-5,2020-10-21 18:12:54.912
1,19,13,4,-3,-3,-3,1,2020-10-21 18:12:54.918
16,39,7,6,4,7,-26,1,2020-10-21 18:12:54.924
-3,-16,-9,-6,-3,-7,-20,1,2020-10-21 18:12:54.931
-3,-16,-9,-6,-3,-7,-20,1,2020-10-21 18:12:54.937
-3,-16,-9,-6,-3,-7,-20,-5,2020-10-21 18:12:54.943
-4,3,-11,9,2,-7,13,-5,2020-10-21 18:12:54.950
-4,3,-11,9,2,-7,13,1,2020-10-21 18:12:54.956
2,-8,-8,1,3,-1,8,-3,2020-10-21 18:12:54.962
-1,-7,-8,-5,0,2,-11,-3,2020-10-21 18:12:54.968
-1,-7,-8,-5,0,2,-11,-3,2020-10-21 18:12:54.974
-1,-7,-8,-5,0,2,-11,1,2020-10-21 18:12:54.981
4,26,-14,14,4,4,8,-2,2020-10-21 18:12:54.987
0,-16,-8,5,2,-4,-6,-2,2020-10-21 18:12:54.993
0,-16,-8,5,2,-4,-6,-3,2020-10-21 18:12:55.000
0,10,-16,1,1,-2,-1,-3,2020-10-21 18:12:55.006
0,10,-16,1,1,-2,-1,-4,2020-10-21 18:12:55.016
-3,12,-4,6,-3,-1,-5,-12,2020-10-21 18:12:55.022
-19,-55,-46,-8,-6,-1,-7,-12,2020-10-21 18:12:55.028
-19,-55,-46,-8,-6,-1,-7,-12,2020-10-21 18:12:55.034
-19,-55,-46,-8,-6,-1,-7,-1,2020-10-21 18:12:55.040
3,37,11,-2,-3,-2,2,4,2020-10-21 18:12:55.046
14,-4,47,14,3,3,-1,4,2020-10-21 18:12:55.053
14,-4,47,14,3,3,-1,10,2020-10-21 18:12:55.060
7,4,32,3,0,4,6,10,2020-10-21 18:12:55.068
7,4,32,3,0,4,6,4,2020-10-21 18:12:55.075
0,21,33,-4,-4,-2,4,2,2020-10-21 18:12:55.082
11,41,20,-6,1,4,4,2,2020-10-21 18:12:55.087
11,41,20,-6,1,4,4,2,2020-10-21 18:12:55.093
11,41,20,-6,1,4,4,-4,2020-10-21 18:12:55.100
-9,-9,-31,-13,-5,-5,-2,4,2020-10-21 18:12:55.107
5,59,-14,9,2,0,0,4,2020-10-21 18:12:55.118
5,59,-14,9,2,0,0,6,2020-10-21 18:12:55.129
7,19,59,6,2,4,5,-2,2020-10-21 18:12:55.136
10,54,7,-12,0,0,-1,-4,2020-10-21 18:12:55.143
-8,-22,-50,-10,-11,-8,-7,-4,2020-10-21 18:12:55.151
-8,-22,-50,-10,-11,-8,-7,-8,2020-10-21 18:12:55.158
-1,-12,34,13,1,0,-3,-7,2020-10-21 18:12:55.165
-11,-22,-44,-31,-7,-3,-7,-7,2020-10-21 18:12:55.172
-11,-22,-44,-31,-7,-3,-7,-8,2020-10-21 18:12:55.178
-5,-41,-19,8,0,-1,-6,1,2020-10-21 18:12:55.191
1,-3,3,-1,-3,-1,-2,3,2020-10-21 18:12:55.202
-2,28,-1,-10,-4,-2,0,-1,2020-10-21 18:12:55.214
0,-3,-13,-4,-4,-2,-1,0,2020-10-21 18:12:55.224
-1,29,36,-3,3,3,3,1,2020-10-21 18:12:55.232
2,11,22,2,4,2,0,-8,2020-10-21 18:12:55.239
-6,-38,-78,-2,-1,1,-2,-8,2020-10-21 18:12:55.245
-6,-38,-78,-2,-1,1,-2,-8,2020-10-21 18:12:55.251
-6,-38,-78,-2,-1,1,-2,5,2020-10-21 18:12:55.258
5,-1,-1,-6,0,0,5,-11,2020-10-21 18:12:55.265
-12,-15,-14,1,-4,-4,-7,-11,2020-10-21 18:12:55.273
-12,-15,-14,1,-4,-4,-7,-1,2020-10-21 18:12:55.279
-1,4,2,3,1,0,-1,-3,2020-10-21 18:12:55.286
-7,-20,8,3,3,1,-2,-3,2020-10-21 18:12:55.293
-7,-20,8,3,3,1,-2,4,2020-10-21 18:12:55.299
10,3,21,3,3,-2,-1,4,2020-10-21 18:12:55.306
10,3,21,3,3,-2,-1,-5,2020-10-21 18:12:55.320
-4,19,-2,2,0,-2,0,-1,2020-10-21 18:12:55.326
1,30,17,-3,0,0,-4,-1,2020-10-21 18:12:55.332
1,30,17,-3,0,0,-4,6,2020-10-21 18:12:55.339
2,4,-4,13,0,-3,-3,-7,2020-10-21 18:12:55.345
-3,-26,5,-3,-2,-8,-10,-7,2020-10-21 18:12:55.352
-3,-26,5,-3,-2,-8,-10,-3,2020-10-21 18:12:55.359
-2,11,14,-4,-2,2,2,-3,2020-10-21 18:12:55.364
-2,11,14,-4,-2,2,2,-3,2020-10-21 18:12:55.370
-2,11,14,-4,-2,2,2,-12,2020-10-21 18:12:55.376
-10,7,5,0,8,1,-10,3,2020-10-21 18:12:55.383
-5,-13,-18,-15,-4,1,3,3,2020-10-21 18:12:55.389
-5,-13,-18,-15,-4,1,3,6,2020-10-21 18:12:55.395
10,3,-4,-7,-3,-6,6,6,2020-10-21 18:12:55.402
10,3,-4,-7,-3,-6,6,-1,2020-10-21 18:12:55.408
-5,7,8,1,-4,-7,-5,-1,2020-10-21 18:12:55.415
-5,7,8,1,-4,-7,-5,-5,2020-10-21 18:12:55.423
-12,-28,-34,7,-1,-2,1,-5,2020-10-21 18:12:55.430
-12,-28,-34,7,-1,-2,1,0,2020-10-21 18:12:55.436
3,12,28,-19,-3,9,-5,4,2020-10-21 18:12:55.442
7,12,9,2,0,2,3,4,2020-10-21 18:12:55.449
7,12,9,2,0,2,3,-12,2020-10-21 18:12:55.455
-20,-65,-50,-9,-8,-7,-4,-12,2020-10-21 18:12:55.462
-20,-65,-50,-9,-8,-7,-4,3,2020-10-21 18:12:55.469
7,52,21,-1,1,-2,0,3,2020-10-21 18:12:55.475
7,52,21,-1,1,-2,0,8,2020-10-21 18:12:55.481
17,16,12,1,-2,2,9,-10,2020-10-21 18:12:55.487
-17,-26,-18,-5,-2,-5,-5,4,2020-10-21 18:12:55.494
-3,-4,-6,1,-4,4,13,-4,2020-10-21 18:12:55.501
1,13,15,12,3,1,-3,-4,2020-10-21 18:12:55.508
1,13,15,12,3,1,-3,-2,2020-10-21 18:12:55.515
4,5,-3,6,3,1,0,-2,2020-10-21 18:12:55.521
4,5,-3,6,3,1,0,-3,2020-10-21 18:12:55.527
-9,-20,3,-11,-7,-5,2,-3,2020-10-21 18:12:55.533
-9,-20,3,-11,-7,-5,2,-2,2020-10-21 18:12:55.539
-9,-24,-11,0,-2,-1,-1,-1,2020-10-21 18:12:55.545
-2,-15,-14,-1,0,2,4,-1,2020-10-21 18:12:55.552
-2,-15,-14,-1,0,2,4,6,2020-10-21 18:12:55.558
4,-3,-8,-6,-1,0,3,1,2020-10-21 18:12:55.564
6,27,15,6,-1,1,1,1,2020-10-21 18:12:55.571
6,27,15,6,-1,1,1,-4,2020-10-21 18:12:55.577
-15,2,2,3,3,7,5,3,2020-10-21 18:12:55.583
4,16,38,5,-1,0,3,3,2020-10-21 18:12:55.589
4,16,38,5,-1,0,3,3,2020-10-21 18:12:55.595
4,16,38,5,-1,0,3,3,2020-10-21 18:12:55.601
9,21,4,-4,-2,-2,-5,-2,2020-10-21 18:12:55.608
5,-7,3,-6,-2,1,-4,-2,2020-10-21 18:12:55.614
5,-7,3,-6,-2,1,-4,11,2020-10-21 18:12:55.620
13,-9,-3,11,0,4,8,-6,2020-10-21 18:12:55.630
-5,6,-28,-6,-3,-5,-11,2,2020-10-21 18:12:55.637
4,14,3,-13,-3,-4,0,-7,2020-10-21 18:12:55.644
-9,-17,6,8,2,1,-4,-7,2020-10-21 18:12:55.651
-9,-17,6,8,2,1,-4,-7,2020-10-21 18:12:55.657
-9,-17,6,8,2,1,-4,-7,2020-10-21 18:12:55.663
-9,-17,6,8,2,1,-4,1,2020-10-21 18:12:55.669
-1,-10,-7,-17,-4,-2,1,1,2020-10-21 18:12:55.675
-1,-10,-7,-17,-4,-2,1,5,2020-10-21 18:12:55.682
2,-4,-1,-2,0,4,3,5,2020-10-21 18:12:55.689
2,-4,-1,-2,0,4,3,-2,2020-10-21 18:12:55.701
-8,-11,-17,-4,-2,-2,-2,4,2020-10-21 18:12:55.707
8,1,-13,10,-2,-8,-1,4,2020-10-21 18:12:55.714
8,1,-13,10,-2,-8,-1,-7,2020-10-21 18:12:55.719
-8,-9,-1,1,-4,-4,-6,-1,2020-10-21 18:12:55.725
5,21,39,10,7,5,-1,-1,2020-10-21 18:12:55.732
5,21,39,10,7,5,-1,-1,2020-10-21 18:12:55.738
5,21,39,10,7,5,-1,6,2020-10-21 18:12:55.744
7,-20,-9,-20,-1,1,4,6,2020-10-21 18:12:55.750
7,-20,-9,-20,-1,1,4,0,2020-10-21 18:12:55.756
2,-2,-7,-4,1,4,2,-1,2020-10-21 18:12:55.762
-3,-7,-23,-9,-5,-4,-3,-1,2020-10-21 18:12:55.769
-3,-7,-23,-9,-5,-4,-3,-1,2020-10-21 18:12:55.775
-3,-7,-23,-9,-5,-4,-3,2,2020-10-21 18:12:55.782
-4,-12,-5,0,2,1,0,-1,2020-10-21 18:12:55.788
-2,-7,7,2,-3,-6,-3,-1,2020-10-21 18:12:55.794
-2,-7,7,2,-3,-6,-3,-14,2020-10-21 18:12:55.801
-9,-2,39,7,1,-6,-13,-7,2020-10-21 18:12:55.807
-11,-7,-6,-3,-7,-2,-1,-7,2020-10-21 18:12:55.813
-11,-7,-6,-3,-7,-2,-1,6,2020-10-21 18:12:55.819
20,85,82,10,5,1,-1,3,2020-10-21 18:12:55.825
3,6,41,3,1,0,0,3,2020-10-21 18:12:55.835
3,6,41,3,1,0,0,-6,2020-10-21 18:12:55.841
-8,-49,-29,-12,-6,-4,-4,-15,2020-10-21 18:12:55.848
-14,-29,-45,-13,-4,-5,-7,-15,2020-10-21 18:12:55.854
-14,-29,-45,-13,-4,-5,-7,-17,2020-10-21 18:12:55.860
-13,-41,-57,-2,-6,-6,-28,-17,2020-10-21 18:12:55.866
-13,-41,-57,-2,-6,-6,-28,-17,2020-10-21 18:12:55.873
-13,-41,-57,-2,-6,-6,-28,-5,2020-10-21 18:12:55.879
4,-20,-4,-10,-3,0,7,10,2020-10-21 18:12:55.885
9,14,11,3,6,5,8,10,2020-10-21 18:12:55.891
9,14,11,3,6,5,8,-5,2020-10-21 18:12:55.898
-9,30,91,5,-1,-6,-9,-5,2020-10-21 18:12:55.904
-9,30,91,5,-1,-6,-9,0,2020-10-21 18:12:55.910
2,-7,14,-3,2,1,8,0,2020-10-21 18:12:55.917
2,-7,14,-3,2,1,8,-18,2020-10-21 18:12:55.923
-17,-17,-40,-4,2,-3,-10,-18,2020-10-21 18:12:55.929
-17,-17,-40,-4,2,-3,-10,-18,2020-10-21 18:12:55.935
-17,-17,-40,-4,2,-3,-10,-18,2020-10-21 18:12:55.941
-17,-17,-40,-4,2,-3,-10,8,2020-10-21 18:12:55.948
6,30,25,8,2,6,3,8,2020-10-21 18:12:55.954
6,30,25,8,2,6,3,-14,2020-10-21 18:12:55.960
-13,-20,-4,-8,-1,-2,-4,-2,2020-10-21 18:12:55.966
-2,14,14,-10,-7,-7,5,-2,2020-10-21 18:12:55.974
-2,14,14,-10,-7,-7,5,12,2020-10-21 18:12:55.981
6,28,12,7,11,19,50,12,2020-10-21 18:12:55.987
6,28,12,7,11,19,50,12,2020-10-21 18:12:55.993
6,28,12,7,11,19,50,7,2020-10-21 18:12:55.999
2,3,-8,-4,2,23,14,9,2020-10-21 18:12:56.005
5,11,19,-3,-6,2,11,9,2020-10-21 18:12:56.012
5,11,19,-3,-6,2,11,-4,2020-10-21 18:12:56.019
-6,-74,-53,-1,-4,11,-24,-4,2020-10-21 18:12:56.025
-6,-74,-53,-1,-4,11,-24,12,2020-10-21 18:12:56.033
2,-17,-19,10,1,18,48,12,2020-10-21 18:12:56.043
2,-17,-19,10,1,18,48,1,2020-10-21 18:12:56.051
0,-2,8,-6,-7,-13,-33,-6,2020-10-21 18:12:56.059
0,-25,-2,6,1,-12,-46,18,2020-10-21 18:12:56.065
8,25,-5,4,6,-9,69,18,2020-10-21 18:12:56.075
8,25,-5,4,6,-9,69,13,2020-10-21 18:12:56.101
10,35,20,-6,0,-8,14,-12,2020-10-21 18:12:56.159
-7,8,-4,-14,-8,-16,-34,-2,2020-10-21 18:12:56.171
-2,-30,-8,0,-4,-2,-3,11,2020-10-21 18:12:56.179
29,-13,4,5,2,5,1,-6,2020-10-21 18:12:56.186
8,-43,-9,-17,-13,-15,-27,-6,2020-10-21 18:12:56.192
8,-43,-9,-17,-13,-15,-27,-8,2020-10-21 18:12:56.200
-12,17,-36,6,-1,8,8,11,2020-10-21 18:12:56.206
30,28,-19,-6,-3,-2,-5,11,2020-10-21 18:12:56.212
30,28,-19,-6,-3,-2,-5,11,2020-10-21 18:12:56.219
30,28,-19,-6,-3,-2,-5,-14,2020-10-21 18:12:56.225
-25,-1,-13,-5,-4,-2,-24,-14,2020-10-21 18:12:56.232
-25,-1,-13,-5,-4,-2,-24,3,2020-10-21 18:12:56.238
2,35,-6,2,1,6,4,-8,2020-10-21 18:12:56.249
-9,13,-9,12,-4,-8,-12,-8,2020-10-21 18:12:56.255
-9,13,-9,12,-4,-8,-12,17,2020-10-21 18:12:56.260
6,-13,23,13,-2,0,9,10,2020-10-21 18:12:56.266
4,24,14,-3,8,5,4,10,2020-10-21 18:12:56.273
4,24,14,-3,8,5,4,10,2020-10-21 18:12:56.279
4,24,14,-3,8,5,4,-18,2020-10-21 18:12:56.285
-16,3,-4,17,2,1,-23,-18,2020-10-21 18:12:56.291
-16,3,-4,17,2,1,-23,-1,2020-10-21 18:12:56.297
1,-9,13,7,-1,2,16,1,2020-10-21 18:12:56.303
-2,-2,-5,-1,-1,-5,-9,1,2020-10-21 18:12:56.310
-2,-2,-5,-1,-1,-5,-9,1,2020-10-21 18:12:56.316
-2,-2,-5,-1,-1,-5,-9,-7,2020-10-21 18:12:56.322
-4,-14,-14,-7,1,6,-9,0,2020-10-21 18:12:56.328
3,45,15,7,4,-2,-6,0,2020-10-21 18:12:56.334
3,45,15,7,4,-2,-6,-21,2020-10-21 18:12:56.340
-11,-27,-18,-9,-4,-13,-60,-2,2020-10-21 18:12:56.346
-4,37,2,-1,1,0,-4,-2,2020-10-21 18:12:56.353
-4,37,2,-1,1,0,-4,-2,2020-10-21 18:12:56.359
-4,37,2,-1,1,0,-4,2,2020-10-21 18:12:56.365
0,-7,15,-6,2,2,38,2,2020-10-21 18:12:56.372
0,-7,15,-6,2,2,38,-1,2020-10-21 18:12:56.378
4,-7,17,0,-2,-4,-5,-1,2020-10-21 18:12:56.385
4,-7,17,0,-2,-4,-5,-1,2020-10-21 18:12:56.391
-10,-33,-20,-1,4,-1,22,-1,2020-10-21 18:12:56.397
-10,-33,-20,-1,4,-1,22,4,2020-10-21 18:12:56.405
1,29,33,5,2,-13,7,-10,2020-10-21 18:12:56.411
-15,-11,-1,-8,-5,8,28,7,2020-10-21 18:12:56.418
7,-51,2,-8,0,28,11,0,2020-10-21 18:12:56.424
3,-7,6,1,-4,-6,-18,0,2020-10-21 18:12:56.430
3,-7,6,1,-4,-6,-18,0,2020-10-21 18:12:56.437
3,-7,6,1,-4,-6,-18,2,2020-10-21 18:12:56.459
6,21,8,-4,-4,-5,12,-9,2020-10-21 18:12:56.470
-7,18,-4,-1,-1,-10,-7,1,2020-10-21 18:12:56.476
-12,-26,-37,-27,-4,0,15,1,2020-10-21 18:12:56.482
-12,-26,-37,-27,-4,0,15,-1,2020-10-21 18:12:56.489
-1,0,12,11,0,3,-8,-1,2020-10-21 18:12:56.495
-1,0,12,11,0,3,-8,4,2020-10-21 18:12:56.505
1,1,-3,1,0,7,13,-4,2020-10-21 18:12:56.511
-1,-58,-22,-5,-8,-9,-27,-4,2020-10-21 18:12:56.519
-1,-58,-22,-5,-8,-9,-27,8,2020-10-21 18:12:56.526
19,71,36,12,10,1,-10,-6,2020-10-21 18:12:56.533
-7,-24,-4,-1,0,6,-11,-6,2020-10-21 18:12:56.540
-7,-24,-4,-1,0,6,-11,-11,2020-10-21 18:12:56.546
-1,49,-13,-4,-2,0,-11,-11,2020-10-21 18:12:56.553
-1,49,-13,-4,-2,0,-11,0,2020-10-21 18:12:56.559
6,50,-26,18,-1,-6,-1,-14,2020-10-21 18:12:56.566
-12,18,29,1,-2,-6,-19,-14,2020-10-21 18:12:56.572
-12,18,29,1,-2,-6,-19,-14,2020-10-21 18:12:56.578
-12,18,29,1,-2,-6,-19,0,2020-10-21 18:12:56.591
-1,12,20,-1,1,1,4,1,2020-10-21 18:12:56.598
-10,-37,-37,-7,-4,2,0,0,2020-10-21 18:12:56.604
4,29,-20,-5,3,2,0,0,2020-10-21 18:12:56.611
4,29,-20,-5,3,2,0,0,2020-10-21 18:12:56.617
4,29,-20,-5,3,2,0,12,2020-10-21 18:12:56.623
6,-39,7,-12,-4,-4,10,4,2020-10-21 18:12:56.630
3,-3,5,2,-2,-5,-1,4,2020-10-21 18:12:56.637
3,-3,5,2,-2,-5,-1,2,2020-10-21 18:12:56.643
-2,-9,-24,4,11,11,14,5,2020-10-21 18:12:56.650
14,-1,37,8,5,3,0,5,2020-10-21 18:12:56.656
14,-1,37,8,5,3,0,5,2020-10-21 18:12:56.662
14,-1,37,8,5,3,0,2,2020-10-21 18:12:56.672
4,-7,-11,21,8,1,6,0,2020-10-21 18:12:56.677
0,1,9,-12,-7,-5,1,0,2020-10-21 18:12:56.683
0,1,9,-12,-7,-5,1,7,2020-10-21 18:12:56.690
4,36,15,-8,-6,-3,15,7,2020-10-21 18:12:56.696
4,36,15,-8,-6,-3,15,1,2020-10-21 18:12:56.703
5,10,13,-14,-2,0,0,3,2020-10-21 18:12:56.710
2,0,27,-6,2,2,-1,3,2020-10-21 18:12:56.716
2,0,27,-6,2,2,-1,3,2020-10-21 18:12:56.722
2,0,27,-6,2,2,-1,3,2020-10-21 18:12:56.728
-2,-69,-73,-24,-3,-2,2,3,2020-10-21 18:12:56.735
-2,-69,-73,-24,-3,-2,2,13,2020-10-21 18:12:56.741
14,31,19,17,7,8,8,-7,2020-10-21 18:12:56.748
0,64,5,11,2,1,-12,-7,2020-10-21 18:12:56.754
0,64,5,11,2,1,-12,-5,2020-10-21 18:12:56.759
-6,-8,12,-6,-2,-5,-3,-5,2020-10-21 18:12:56.766
-6,-8,12,-6,-2,-5,-3,-7,2020-10-21 18:12:56.773
-8,-21,-18,1,-8,-5,-8,-7,2020-10-21 18:12:56.779
-8,-21,-18,1,-8,-5,-8,2,2020-10-21 18:12:56.786
1,8,10,-1,-2,0,-3,2,2020-10-21 18:12:56.792
1,8,10,-1,-2,0,-3,-8,2020-10-21 18:12:56.798
-5,-29,-40,-8,0,-6,-21,-8,2020-10-21 18:12:56.805
-5,-29,-40,-8,0,-6,-21,3,2020-10-21 18:12:56.811
6,14,16,-3,2,3,5,3,2020-10-21 18:12:56.817
6,14,16,-3,2,3,5,-7,2020-10-21 18:12:56.824
-1,40,31,-14,-7,-5,0,-2,2020-10-21 18:12:56.831
2,13,6,2,-5,-10,-5,-2,2020-10-21 18:12:56.837
2,13,6,2,-5,-10,-5,-16,2020-10-21 18:12:56.843
-11,32,21,-13,-11,-12,-15,-16,2020-10-21 18:12:56.851
-11,32,21,-13,-11,-12,-15,5,2020-10-21 18:12:56.857
9,10,-7,20,3,2,25,5,2020-10-21 18:12:56.864
9,10,-7,20,3,2,25,18,2020-10-21 18:12:56.875
15,-3,-5,7,6,12,36,-7,2020-10-21 18:12:56.882
-6,6,-7,-4,11,-7,-6,-11,2020-10-21 18:12:56.888
-10,-10,-12,-5,1,-5,-18,-11,2020-10-21 18:12:56.894
-10,-10,-12,-5,1,-5,-18,-11,2020-10-21 18:12:56.901
-10,-10,-12,-5,1,-5,-18,3,2020-10-21 18:12:56.907
-4,-28,6,-19,-7,-4,-8,3,2020-10-21 18:12:56.913
-4,-28,6,-19,-7,-4,-8,3,2020-10-21 18:12:56.919
-4,-28,6,-19,-7,-4,-8,3,2020-10-21 18:12:56.925
8,28,-10,4,-2,1,3,-2,2020-10-21 18:12:56.933
-3,-31,6,5,5,7,2,0,2020-10-21 18:12:56.939
1,-9,2,1,-3,-8,1,2,2020-10-21 18:12:56.945
5,23,10,-5,-1,-2,-3,4,2020-10-21 18:12:56.951
3,29,5,4,1,-3,2,4,2020-10-21 18:12:56.957
3,29,5,4,1,-3,2,-12,2020-10-21 18:12:56.963
-7,11,-7,-10,-14,-12,-15,-12,2020-10-21 18:12:56.970
-7,11,-7,-10,-14,-12,-15,-2,2020-10-21 18:12:56.978
-5,-39,-12,-11,-8,-2,-1,-2,2020-10-21 18:12:56.985
-5,-39,-12,-11,-8,-2,-1,7,2020-10-21 18:12:56.992
14,86,42,10,9,11,7,7,2020-10-21 18:12:57.005
14,86,42,10,9,11,7,-2,2020-10-21 18:12:57.014
-13,-56,-29,24,7,3,1,-2,2020-10-21 18:12:57.021
-13,-56,-29,24,7,3,1,-10,2020-10-21 18:12:57.027
-5,-24,-5,-1,-3,-4,-4,-10,2020-10-21 18:12:57.034
-5,-24,-5,-1,-3,-4,-4,-1,2020-10-21 18:12:57.041
-9,-62,-1,-6,-2,-2,-1,3,2020-10-21 18:12:57.066
2,-7,23,1,7,-4,-5,8,2020-10-21 18:12:57.078
6,-9,-31,-8,0,9,13,-6,2020-10-21 18:12:57.089
-11,-26,-2,-11,-9,-4,-4,-6,2020-10-21 18:12:57.095
-11,-26,-2,-11,-9,-4,-4,-7,2020-10-21 18:12:57.103
-4,8,11,-2,0,-1,-10,8,2020-10-21 18:12:57.110
18,29,23,2,6,1,1,8,2020-10-21 18:12:57.118
18,29,23,2,6,1,1,1,2020-10-21 18:12:57.124
1,-14,-13,-7,-1,5,5,-5,2020-10-21 18:12:57.131
-5,3,1,-4,-10,-14,-16,-5,2020-10-21 18:12:57.137
-5,3,1,-4,-10,-14,-16,6,2020-10-21 18:12:57.143
2,-8,7,9,6,17,12,6,2020-10-21 18:12:57.150
2,-8,7,9,6,17,12,6,2020-10-21 18:12:57.157
2,-8,7,9,6,17,12,-4,2020-10-21 18:12:57.163
-9,-38,-40,-3,-3,-1,1,-2,2020-10-21 18:12:57.170
0,-1,13,-3,6,11,-4,-2,2020-10-21 18:12:57.176
0,-1,13,-3,6,11,-4,-5,2020-10-21 18:12:57.183
-3,-7,-21,-9,-4,-7,0,-5,2020-10-21 18:12:57.189
-3,-7,-21,-9,-4,-7,0,-7,2020-10-21 18:12:57.195
-9,-2,-21,-7,-12,-5,-9,-7,2020-10-21 18:12:57.201
-9,-2,-21,-7,-12,-5,-9,4,2020-10-21 18:12:57.208
1,-20,3,9,4,-2,3,4,2020-10-21 18:12:57.214
1,-20,3,9,4,-2,3,-4,2020-10-21 18:12:57.221
-5,26,14,16,7,-7,-4,4,2020-10-21 18:12:57.227
6,39,6,14,2,6,6,4,2020-10-21 18:12:57.234
6,39,6,14,2,6,6,13,2020-10-21 18:12:57.240
7,4,6,-22,-3,-7,28,13,2020-10-21 18:12:57.245
7,4,6,-22,-3,-7,28,-1,2020-10-21 18:12:57.252
2,24,22,1,-2,-7,-1,-1,2020-10-21 18:12:57.258
2,24,22,1,-2,-7,-1,-8,2020-10-21 18:12:57.264
-7,1,-10,-13,-6,0,-18,5,2020-10-21 18:12:57.271
3,-13,-33,15,6,2,4,-4,2020-10-21 18:12:57.280
-3,-5,22,10,3,-1,4,-10,2020-10-21 18:12:57.286
-10,-43,-23,-8,-4,-8,-21,-10,2020-10-21 18:12:57.293
-10,-43,-23,-8,-4,-8,-21,-10,2020-10-21 18:12:57.299
-10,-43,-23,-8,-4,-8,-21,-9,2020-10-21 18:12:57.305
-2,8,-14,13,-10,3,-13,6,2020-10-21 18:12:57.312
-5,-33,-44,-23,1,14,33,6,2020-10-21 18:12:57.318
-5,-33,-44,-23,1,14,33,6,2020-10-21 18:12:57.324
-5,-33,-44,-23,1,14,33,6,2020-10-21 18:12:57.330
-5,-33,-44,-23,1,14,33,-11,2020-10-21 18:12:57.336
-7,24,24,-20,-3,-1,-24,1,2020-10-21 18:12:57.342
1,-17,-9,-2,2,-3,-22,4,2020-10-21 18:12:57.349
4,8,9,-2,0,-4,7,4,2020-10-21 18:12:57.355
4,8,9,-2,0,-4,7,-2,2020-10-21 18:12:57.360
-1,-8,-34,-16,0,-4,5,-2,2020-10-21 18:12:57.367
-1,-8,-34,-16,0,-4,5,-9,2020-10-21 18:12:57.373
-9,5,-3,4,-5,-9,-20,-9,2020-10-21 18:12:57.379
-9,5,-3,4,-5,-9,-20,-1,2020-10-21 18:12:57.385
0,20,3,-2,-2,0,1,1,2020-10-21 18:12:57.392
0,19,17,0,9,4,13,-14,2020-10-21 18:12:57.399
-11,-14,18,0,-2,-9,-23,-14,2020-10-21 18:12:57.406
-11,-14,18,0,-2,-9,-23,-2,2020-10-21 18:12:57.412
1,0,6,-8,-5,1,4,-2,2020-10-21 18:12:57.419
1,0,6,-8,-5,1,4,9,2020-10-21 18:12:57.425
3,-29,-6,6,16,8,37,-5,2020-10-21 18:12:57.431
3,8,15,12,2,1,-26,-5,2020-10-21 18:12:57.443
3,8,15,12,2,1,-26,7,2020-10-21 18:12:57.450
4,-9,-6,12,0,2,9,3,2020-10-21 18:12:57.456
5,5,31,18,-1,-2,-15,3,2020-10-21 18:12:57.462
5,5,31,18,-1,-2,-15,-2,2020-10-21 18:12:57.470
2,-2,-13,-3,2,-12,-32,-2,2020-10-21 18:12:57.476
2,-2,-13,-3,2,-12,-32,-6,2020-10-21 18:12:57.485
-5,20,66,3,0,-1,8,-6,2020-10-21 18:12:57.491
10,35,63,1,-23,-8,-47,-6,2020-10-21 18:12:57.499
10,35,63,1,-23,-8,-47,0,2020-10-21 18:12:57.508
-10,-61,-36,25,0,-5,-5,1,2020-10-21 18:12:57.513
-3,-17,-9,-3,-3,6,10,1,2020-10-21 18:12:57.520
-3,-17,-9,-3,-3,6,10,2,2020-10-21 18:12:57.526
-2,2,-36,2,1,4,31,2,2020-10-21 18:12:57.533
-2,2,-36,2,1,4,31,2,2020-10-21 18:12:57.539
-2,2,-36,2,1,4,31,8,2020-10-21 18:12:57.545
9,16,6,-4,3,6,12,1,2020-10-21 18:12:57.552
4,-2,-16,-5,1,-6,-20,1,2020-10-21 18:12:57.558
4,-2,-16,-5,1,-6,-20,-4,2020-10-21 18:12:57.571
-5,9,4,-8,-3,-8,1,8,2020-10-21 18:12:57.583
9,5,2,-1,-1,-4,3,0,2020-10-21 18:12:57.590
-12,-52,-46,-2,2,1,15,0,2020-10-21 18:12:57.597
-12,-52,-46,-2,2,1,15,16,2020-10-21 18:12:57.605
10,18,2,-10,-2,-5,9,10,2020-10-21 18:12:57.611
6,49,39,4,4,4,21,10,2020-10-21 18:12:57.617
6,49,39,4,4,4,21,-1,2020-10-21 18:12:57.623
-4,5,9,-4,-2,-3,-11,-1,2020-10-21 18:12:57.630
-4,5,9,-4,-2,-3,-11,-17,2020-10-21 18:12:57.639
-10,-7,-14,1,4,-2,2,19,2020-10-21 18:12:57.655
19,11,36,0,-2,1,1,6,2020-10-21 18:12:57.666
3,-8,24,-11,-8,-3,10,-27,2020-10-21 18:12:57.674
-19,-18,-12,3,-10,-13,-48,-27,2020-10-21 18:12:57.681
-19,-18,-12,3,-10,-13,-48,-8,2020-10-21 18:12:57.692
-2,6,6,-20,-6,1,-14,13,2020-10-21 18:12:57.698
14,26,2,-7,-1,8,26,13,2020-10-21 18:12:57.706
14,26,2,-7,-1,8,26,1,2020-10-21 18:12:57.712
-6,-9,7,-4,-1,2,6,1,2020-10-21 18:12:57.719
-6,-9,7,-4,-1,2,6,1,2020-10-21 18:12:57.725
18,57,64,20,6,-11,-13,15,2020-10-21 18:12:57.730
6,-3,-4,10,-4,3,32,15,2020-10-21 18:12:57.737
6,-3,-4,10,-4,3,32,1,2020-10-21 18:12:57.743
-1,5,7,-6,5,6,16,-8,2020-10-21 18:12:57.751
-3,19,-6,6,-3,-6,-32,-8,2020-10-21 18:12:57.757
-3,19,-6,6,-3,-6,-32,-8,2020-10-21 18:12:57.762
-3,19,-6,6,-3,-6,-32,2,2020-10-21 18:12:57.769
3,-3,-1,9,6,4,25,-8,2020-10-21 18:12:57.776
-5,-36,-4,-5,1,-1,-5,-7,2020-10-21 18:12:57.782
-3,-34,-14,-8,-10,-20,-35,-7,2020-10-21 18:12:57.789
-3,-34,-14,-8,-10,-20,-35,0,2020-10-21 18:12:57.794
-12,14,13,-3,-3,3,3,0,2020-10-21 18:12:57.802
-12,14,13,-3,-3,3,3,-8,2020-10-21 18:12:57.809
-4,-17,-12,-6,1,3,-13,-8,2020-10-21 18:12:57.817
-4,-17,-12,-6,1,3,-13,-7,2020-10-21 18:12:57.825
-2,16,11,-3,-3,-4,-15,0,2020-10-21 18:12:57.832
-3,-10,-11,4,5,7,27,4,2020-10-21 18:12:57.839
5,-2,30,-4,1,2,1,5,2020-10-21 18:12:57.846
7,-3,-6,-3,3,21,-7,13,2020-10-21 18:12:57.854
9,0,11,-2,0,8,30,13,2020-10-21 18:12:57.859
9,0,11,-2,0,8,30,-16,2020-10-21 18:12:57.865
-15,-28,-40,-6,-7,-3,-7,3,2020-10-21 18:12:57.873
11,14,12,-7,-1,-7,10,3,2020-10-21 18:12:57.879
11,14,12,-7,-1,-7,10,5,2020-10-21 18:12:57.885
-2,-8,18,2,-6,5,-4,5,2020-10-21 18:12:57.895
-2,-8,18,2,-6,5,-4,10,2020-10-21 18:12:57.910
10,16,11,-9,-2,10,7,2,2020-10-21 18:12:57.916
9,13,12,-2,7,5,10,0,2020-10-21 18:12:57.921
4,40,31,7,2,-4,18,0,2020-10-21 18:12:57.928
4,40,31,7,2,-4,18,-7,2020-10-21 18:12:57.935
-5,-19,7,13,-2,-1,-16,-7,2020-10-21 18:12:57.941
-5,-19,7,13,-2,-1,-16,-22,2020-10-21 18:12:57.947
-26,-28,-13,-4,-2,-19,-19,-3,2020-10-21 18:12:57.954
2,26,-15,-8,-7,-6,-13,6,2020-10-21 18:12:57.960
1,-7,-37,-24,-11,-9,3,6,2020-10-21 18:12:57.967
1,-7,-37,-24,-11,-9,3,-13,2020-10-21 18:12:57.974
3,-21,-32,9,9,8,-11,-13,2020-10-21 18:12:57.980
3,-21,-32,9,9,8,-11,9,2020-10-21 18:12:57.987
-7,-52,-22,-1,0,4,14,20,2020-10-21 18:12:57.993
23,40,51,57,27,14,17,20,2020-10-21 18:12:58.000
23,40,51,57,27,14,17,-2,2020-10-21 18:12:58.008
4,45,15,5,-3,-7,-10,11,2020-10-21 18:12:58.014
-3,-2,-41,-11,-8,-10,6,-15,2020-10-21 18:12:58.020
-15,30,9,0,0,-3,-14,-15,2020-10-21 18:12:58.029
-15,30,9,0,0,-3,-14,-11,2020-10-21 18:12:58.036
-16,-26,18,-11,-5,-8,-20,5,2020-10-21 18:12:58.042
7,3,30,7,2,-3,0,5,2020-10-21 18:12:58.052
7,3,30,7,2,-3,0,1,2020-10-21 18:12:58.058
-7,27,40,2,0,2,4,-17,2020-10-21 18:12:58.064
-2,2,-39,35,-2,-14,-18,-14,2020-10-21 18:12:58.072
-32,-37,-36,-11,1,2,7,0,2020-10-21 18:12:58.078
-3,-24,-15,1,-5,-5,-3,-4,2020-10-21 18:12:58.100
3,22,8,-25,-17,-10,7,-2,2020-10-21 18:12:58.116
-1,-30,-20,-4,-2,-3,-10,1,2020-10-21 18:12:58.123
3,11,5,-17,-5,-1,4,4,2020-10-21 18:12:58.130
8,-8,-6,12,4,3,-2,-1,2020-10-21 18:12:58.142
-3,-7,-12,12,1,6,5,-8,2020-10-21 18:12:58.150
-14,-42,-24,-2,-8,-5,-2,-8,2020-10-21 18:12:58.158
-14,-42,-24,-2,-8,-5,-2,1,2020-10-21 18:12:58.164
7,25,14,5,-1,-5,-4,1,2020-10-21 18:12:58.171
3,15,-5,9,-1,-1,3,3,2020-10-21 18:12:58.177
5,9,5,2,-6,-1,-1,3,2020-10-21 18:12:58.184
5,9,5,2,-6,-1,-1,-13,2020-10-21 18:12:58.190
-4,-43,-33,-7,-4,-3,-54,4,2020-10-21 18:12:58.196
-3,10,0,10,1,14,27,7,2020-10-21 18:12:58.203
7,5,8,-2,-4,0,0,7,2020-10-21 18:12:58.209
8,20,28,-15,14,1,11,7,2020-10-21 18:12:58.215
8,20,28,-15,14,1,11,7,2020-10-21 18:12:58.221
8,20,28,-15,14,1,11,7,2020-10-21 18:12:58.227
-4,-16,-18,6,9,15,58,1,2020-10-21 18:12:58.234
1,-7,-21,-17,-2,-6,-20,1,2020-10-21 18:12:58.240
1,-7,-21,-17,-2,-6,-20,-7,2020-10-21 18:12:58.246
-5,-3,2,-1,-3,-5,-19,-7,2020-10-21 18:12:58.252
-5,-3,2,-1,-3,-5,-19,9,2020-10-21 18:12:58.258
0,-18,10,4,7,19,35,5,2020-10-21 18:12:58.264
0,-20,-16,-6,-2,-10,-5,-14,2020-10-21 18:12:58.271
-13,-15,-17,-3,-8,-2,-38,-14,2020-10-21 18:12:58.277
-13,-15,-17,-3,-8,-2,-38,8,2020-10-21 18:12:58.283
8,21,10,7,5,3,27,8,2020-10-21 18:12:58.290
8,21,10,7,5,3,27,10,2020-10-21 18:12:58.295
14,1,4,4,5,-2,11,10,2020-10-21 18:12:58.301
14,1,4,4,5,-2,11,-6,2020-10-21 18:12:58.311
3,-2,-16,-4,0,-1,-1,-2,2020-10-21 18:12:58.318
-3,3,-12,-6,-8,-12,-10,-20,2020-10-21 18:12:58.325
-22,-15,1,-6,-11,-20,-22,-12,2020-10-21 18:12:58.331
-10,-10,-29,5,-5,-13,-14,-12,2020-10-21 18:12:58.337
-10,-10,-29,5,-5,-13,-14,-2,2020-10-21 18:12:58.343
-5,-1,-7,0,-3,-4,4,-2,2020-10-21 18:12:58.350
-5,-1,-7,0,-3,-4,4,2,2020-10-21 18:12:58.356
2,15,5,-3,-1,-1,3,2,2020-10-21 18:12:58.370
2,15,5,-3,-1,-1,3,9,2020-10-21 18:12:58.376
17,41,25,-7,4,10,-1,-2,2020-10-21 18:12:58.383
3,10,4,-5,-1,2,-7,5,2020-10-21 18:12:58.389
7,-10,19,-2,2,-2,7,5,2020-10-21 18:12:58.397
7,-10,19,-2,2,-2,7,9,2020-10-21 18:12:58.408
14,-9,-1,1,-1,-1,7,-7,2020-10-21 18:12:58.414
4,9,-3,2,0,-4,-12,-7,2020-10-21 18:12:58.425
4,9,-3,2,0,-4,-12,-8,2020-10-21 18:12:58.436
-7,-29,-20,-7,0,3,-1,-3,2020-10-21 18:12:58.447
-8,4,35,-12,-5,-8,0,0,2020-10-21 18:12:58.454
-6,-9,-8,5,3,3,2,0,2020-10-21 18:12:58.461
-6,-9,-8,5,3,3,2,-4,2020-10-21 18:12:58.468
-2,-5,-9,-8,2,-1,-6,5,2020-10-21 18:12:58.474
1,-4,11,9,1,4,7,5,2020-10-21 18:12:58.481
1,-4,11,9,1,4,7,2,2020-10-21 18:12:58.487
-1,-19,-9,1,-1,1,-1,2,2020-10-21 18:12:58.494
-1,-19,-9,1,-1,1,-1,2,2020-10-21 18:12:58.502
-1,-19,-9,1,-1,1,-1,-3,2020-10-21 18:12:58.514
-4,-22,-2,-6,-3,-2,-5,-2,2020-10-21 18:12:58.521
-1,9,-7,5,0,-1,-2,4,2020-10-21 18:12:58.528
9,4,5,1,-1,4,4,-9,2020-10-21 18:12:58.535
-8,-13,-22,-9,-4,-5,-6,-9,2020-10-21 18:12:58.541
-8,-13,-22,-9,-4,-5,-6,1,2020-10-21 18:12:58.547
2,51,3,-2,-1,2,1,6,2020-10-21 18:12:58.554
0,9,-20,6,1,6,12,6,2020-10-21 18:12:58.560
0,9,-20,6,1,6,12,6,2020-10-21 18:12:58.567
0,9,-20,6,1,6,12,-5,2020-10-21 18:12:58.574
-5,13,2,1,0,-5,-9,-5,2020-10-21 18:12:58.580
-5,13,2,1,0,-5,-9,10,2020-10-21 18:12:58.588
7,22,13,6,-4,0,6,-1,2020-10-21 18:12:58.594
-4,-8,-22,-8,-4,-2,-1,-1,2020-10-21 18:12:58.600
-4,-8,-22,-8,-4,-2,-1,-8,2020-10-21 18:12:58.606
-10,-17,-7,-9,-3,-4,-8,-8,2020-10-21 18:12:58.612
-10,-17,-7,-9,-3,-4,-8,-6,2020-10-21 18:12:58.618
-9,-15,-10,-3,-3,-1,-3,-6,2020-10-21 18:12:58.624
-9,-15,-10,-3,-3,-1,-3,-6,2020-10-21 18:12:58.631
-3,-3,-2,-3,-1,-4,-8,-6,2020-10-21 18:12:58.637
-3,-3,-2,-3,-1,-4,-8,-4,2020-10-21 18:12:58.643
-7,5,15,18,5,1,1,-4,2020-10-21 18:12:58.649
-7,5,15,18,5,1,1,9,2020-10-21 18:12:58.655
8,3,-9,14,9,9,10,9,2020-10-21 18:12:58.661
8,3,-9,14,9,9,10,-6,2020-10-21 18:12:58.668
-7,-23,11,10,1,-4,-1,-1,2020-10-21 18:12:58.674
-1,15,14,7,-1,-1,-1,-1,2020-10-21 18:12:58.680
-1,15,14,7,-1,-1,-1,-1,2020-10-21 18:12:58.688
-1,15,14,7,-1,-1,-1,-6,2020-10-21 18:12:58.694
-8,-18,-10,-22,-9,-4,-3,-6,2020-10-21 18:12:58.700
-8,-18,-10,-22,-9,-4,-3,-3,2020-10-21 18:12:58.707
-2,-11,-12,-16,-11,-8,-2,-1,2020-10-21 18:12:58.716
-7,-55,-37,-10,-1,-2,-2,-1,2020-10-21 18:12:58.723
-7,-55,-37,-10,-1,-2,-2,-1,2020-10-21 18:12:58.729
-8,-13,5,-1,2,1,1,6,2020-10-21 18:12:58.736
8,10,-9,-6,-4,2,4,6,2020-10-21 18:12:58.742
8,10,-9,-6,-4,2,4,0,2020-10-21 18:12:58.748
1,-14,-24,-13,3,2,-1,1,2020-10-21 18:12:58.755
6,30,41,0,3,1,2,1,2020-10-21 18:12:58.761
6,30,41,0,3,1,2,-3,2020-10-21 18:12:58.768
-1,-4,0,8,0,-1,-3,2,2020-10-21 18:12:58.774
3,6,18,-9,-3,-1,-6,2,2020-10-21 18:12:58.780
3,6,18,-9,-3,-1,-6,-1,2020-10-21 18:12:58.788
-14,-22,5,2,1,0,-1,6,2020-10-21 18:12:58.794
3,-18,1,9,4,1,4,6,2020-10-21 18:12:58.800
3,-18,1,9,4,1,4,6,2020-10-21 18:12:58.806
3,-18,1,9,4,1,4,-5,2020-10-21 18:12:58.813
-7,5,17,-3,0,-2,0,-5,2020-10-21 18:12:58.826
-7,5,17,-3,0,-2,0,6,2020-10-21 18:12:58.833
8,10,2,6,1,2,6,6,2020-10-21 18:12:58.839
8,10,2,6,1,2,6,1,2020-10-21 18:12:58.845
8,7,4,2,-2,0,0,1,2020-10-21 18:12:58.851
8,7,4,2,-2,0,0,-2,2020-10-21 18:12:58.857
-3,-3,-1,-2,-2,-2,-3,-2,2020-10-21 18:12:58.863
-3,-3,-1,-2,-2,-2,-3,7,2020-10-21 18:12:58.870
11,13,-7,6,1,1,4,-3,2020-10-21 18:12:58.876
-4,4,-4,-4,-2,-3,-2,4,2020-10-21 18:12:58.882
6,21,15,9,4,1,1,4,2020-10-21 18:12:58.888
6,21,15,9,4,1,1,-8,2020-10-21 18:12:58.894
-8,-22,4,11,-4,-6,-6,-8,2020-10-21 18:12:58.901
-8,-22,4,11,-4,-6,-6,-9,2020-10-21 18:12:58.906
-4,-15,-11,-7,-2,-3,-8,-9,2020-10-21 18:12:58.912
-4,-15,-11,-7,-2,-3,-8,-3,2020-10-21 18:12:58.923
3,20,0,0,-2,-2,-2,6,2020-10-21 18:12:58.929
1,-12,-1,0,-2,3,7,-11,2020-10-21 18:12:58.935
-1,16,-1,17,0,-6,-8,-11,2020-10-21 18:12:58.940
-1,16,-1,17,0,-6,-8,0,2020-10-21 18:12:58.946
3,17,9,-4,-1,-2,-2,7,2020-10-21 18:12:58.953
4,4,-2,1,3,2,4,7,2020-10-21 18:12:58.959
4,4,-2,1,3,2,4,1,2020-10-21 18:12:58.965
-4,-2,4,-3,-5,-2,2,1,2020-10-21 18:12:58.971
-4,-2,4,-3,-5,-2,2,-1,2020-10-21 18:12:58.978
-2,-11,-5,-9,1,1,-2,-1,2020-10-21 18:12:58.985
-2,-11,-5,-9,1,1,-2,1,2020-10-21 18:12:58.993
3,3,-6,0,1,0,-2,-5,2020-10-21 18:12:58.998
-6,1,9,-5,-4,-2,-4,11,2020-10-21 18:12:59.005
6,-32,15,-18,-3,6,11,-1,2020-10-21 18:12:59.011
2,6,1,-6,0,-2,-2,-1,2020-10-21 18:12:59.017
2,6,1,-6,0,-2,-2,-1,2020-10-21 18:12:59.023
2,6,1,-6,0,-2,-2,2,2020-10-21 18:12:59.029
4,8,-5,-7,-1,-3,1,-13,2020-10-21 18:12:59.036
-14,33,11,-1,-4,-9,-10,-13,2020-10-21 18:12:59.041
-14,33,11,-1,-4,-9,-10,-2,2020-10-21 18:12:59.048
2,-4,-4,-1,-4,-2,0,-2,2020-10-21 18:12:59.054
2,-4,-4,-1,-4,-2,0,4,2020-10-21 18:12:59.060
5,-10,-11,-3,0,2,4,0,2020-10-21 18:12:59.066
9,27,0,6,2,2,-3,0,2020-10-21 18:12:59.073
0,19,0,-1,1,1,-1,0,2020-10-21 18:12:59.079
0,19,0,-1,1,1,-1,-5,2020-10-21 18:12:59.085
-5,-18,-16,3,3,1,-3,-5,2020-10-21 18:12:59.092
-5,-18,-16,3,3,1,-3,-7,2020-10-21 18:12:59.097
-10,3,7,-6,-6,-2,-3,-7,2020-10-21 18:12:59.103
-10,3,7,-6,-6,-2,-3,-8,2020-10-21 18:12:59.109
-11,-15,-3,3,5,0,-3,-8,2020-10-21 18:12:59.115
-11,-15,-3,3,5,0,-3,5,2020-10-21 18:12:59.124
5,7,2,-4,-3,1,4,0,2020-10-21 18:12:59.130
-2,2,-3,7,1,-1,-2,5,2020-10-21 18:12:59.136
3,-8,7,-1,0,1,1,5,2020-10-21 18:12:59.142
3,-8,7,-1,0,1,1,4,2020-10-21 18:12:59.148
-2,15,11,-8,-5,0,4,8,2020-10-21 18:12:59.154
2,-14,-9,-4,-1,2,3,8,2020-10-21 18:12:59.160
2,-14,-9,-4,-1,2,3,8,2020-10-21 18:12:59.166
2,-14,-9,-4,-1,2,3,-3,2020-10-21 18:12:59.172
9,31,25,15,3,-1,-1,3,2020-10-21 18:12:59.178
4,-4,6,7,2,0,2,1,2020-10-21 18:12:59.184
-5,-11,-9,0,2,1,1,0,2020-10-21 18:12:59.191
0,8,-1,-5,-4,0,0,-4,2020-10-21 18:12:59.197
-2,6,12,5,-1,-5,-4,-4,2020-10-21 18:12:59.203
-2,6,12,5,-1,-5,-4,-4,2020-10-21 18:12:59.209
-8,-2,-3,2,1,-3,-5,1,2020-10-21 18:12:59.215
-1,-11,-10,-7,-1,1,1,1,2020-10-21 18:12:59.221
-1,-11,-10,-7,-1,1,1,2,2020-10-21 18:12:59.228
3,-1,-1,5,-1,1,1,2,2020-10-21 18:12:59.234
3,-1,-1,5,-1,1,1,-8,2020-10-21 18:12:59.241
-1,-5,-12,3,2,1,-2,-2,2020-10-21 18:12:59.254
5,-3,8,-11,-4,-1,0,-1,2020-10-21 18:12:59.260
-3,-9,-9,0,1,0,0,0,2020-10-21 18:12:59.266
-2,-8,-20,-9,-3,-1,0,0,2020-10-21 18:12:59.272
-2,-8,-20,-9,-3,-1,0,-8,2020-10-21 18:12:59.278
-13,0,13,-5,3,-1,-6,-8,2020-10-21 18:12:59.284
-13,0,13,-5,3,-1,-6,4,2020-10-21 18:12:59.290
4,-5,8,-2,-6,-1,1,0,2020-10-21 18:12:59.296
2,-19,-28,-1,-3,-4,-3,0,2020-10-21 18:12:59.302
5,24,31,3,4,1,1,0,2020-10-21 18:12:59.308
5,24,31,3,4,1,1,-4,2020-10-21 18:12:59.314
-3,-14,-6,4,0,3,-2,-4,2020-10-21 18:12:59.320
-3,-14,-6,4,0,3,-2,4,2020-10-21 18:12:59.331
5,-5,-1,1,-4,-1,0,-5,2020-10-21 18:12:59.337
-1,1,-11,-9,-2,-7,-8,-5,2020-10-21 18:12:59.343
-1,1,-11,-9,-2,-7,-8,2,2020-10-21 18:12:59.349
0,4,8,13,3,1,2,0,2020-10-21 18:12:59.356
6,9,15,-5,-4,0,-1,-12,2020-10-21 18:12:59.362
-20,-34,-36,-10,-1,-4,-6,-12,2020-10-21 18:12:59.368
-20,-34,-36,-10,-1,-4,-6,3,2020-10-21 18:12:59.374
4,-17,-4,0,-1,1,-5,3,2020-10-21 18:12:59.380
4,-17,-4,0,-1,1,-5,0,2020-10-21 18:12:59.386
-5,-27,-32,2,2,3,3,0,2020-10-21 18:12:59.393
-5,-27,-32,2,2,3,3,8,2020-10-21 18:12:59.399
17,43,34,0,6,4,6,8,2020-10-21 18:12:59.405
17,43,34,0,6,4,6,-9,2020-10-21 18:12:59.411
-8,11,-19,16,2,-3,-6,-9,2020-10-21 18:12:59.417
-8,11,-19,16,2,-3,-6,5,2020-10-21 18:12:59.423
7,4,61,-8,0,3,6,5,2020-10-21 18:12:59.429
7,4,61,-8,0,3,6,3,2020-10-21 18:12:59.435
-7,-26,-9,13,2,4,5,3,2020-10-21 18:12:59.441
-7,-26,-9,13,2,4,5,3,2020-10-21 18:12:59.447
3,-5,-9,-3,0,0,-1,3,2020-10-21 18:12:59.454
3,-5,-9,-3,0,0,-1,3,2020-10-21 18:12:59.459
5,4,-17,-6,-8,-4,4,3,2020-10-21 18:12:59.465
5,4,-17,-6,-8,-4,4,5,2020-10-21 18:12:59.470
10,17,37,-4,-1,0,-1,5,2020-10-21 18:12:59.477
10,17,37,-4,-1,0,-1,4,2020-10-21 18:12:59.482
7,27,10,8,3,1,2,4,2020-10-21 18:12:59.489
7,27,10,8,3,1,2,-1,2020-10-21 18:12:59.496
0,-17,-29,3,1,-3,0,-1,2020-10-21 18:12:59.503
0,-17,-29,3,1,-3,0,-3,2020-10-21 18:12:59.510
-16,-23,-10,1,1,-1,1,-6,2020-10-21 18:12:59.516
-7,-26,-16,4,-2,-1,-4,-6,2020-10-21 18:12:59.522
-7,-26,-16,4,-2,-1,-4,-1,2020-10-21 18:12:59.532
-2,-34,-12,0,-2,-2,0,-5,2020-10-21 18:12:59.539
-8,-10,2,-3,2,-3,-3,-5,2020-10-21 18:12:59.544
-8,-10,2,-3,2,-3,-3,-5,2020-10-21 18:12:59.550
-8,-10,2,-3,2,-3,-3,-6,2020-10-21 18:12:59.556
0,37,49,-10,-5,-6,-8,-6,2020-10-21 18:12:59.562
0,37,49,-10,-5,-6,-8,-3,2020-10-21 18:12:59.569
-2,2,22,24,2,-1,-2,0,2020-10-21 18:12:59.574
-6,-52,-10,-8,-9,1,9,0,2020-10-21 18:12:59.580
-6,-52,-10,-8,-9,1,9,7,2020-10-21 18:12:59.587
10,13,14,-24,-7,-2,1,7,2020-10-21 18:12:59.593
10,13,14,-24,-7,-2,1,-1,2020-10-21 18:12:59.598
-2,2,-10,8,5,0,-3,-1,2020-10-21 18:12:59.605
-2,2,-10,8,5,0,-3,3,2020-10-21 18:12:59.611
6,57,-19,-12,-1,-1,4,1,2020-10-21 18:12:59.617
-2,-16,-45,-13,2,1,1,1,2020-10-21 18:12:59.623
-2,-16,-45,-13,2,1,1,6,2020-10-21 18:12:59.630
7,-29,56,12,3,-2,-3,-11,2020-10-21 18:12:59.636
-8,-4,-6,0,-11,-10,-10,-11,2020-10-21 18:12:59.643
-8,-4,-6,0,-11,-10,-10,4,2020-10-21 18:12:59.649
1,-12,-20,-3,-3,-8,-9,4,2020-10-21 18:12:59.662
1,-12,-20,-3,-3,-8,-9,-5,2020-10-21 18:12:59.669
0,17,4,-6,-6,2,-16,2,2020-10-21 18:12:59.675
-1,24,-1,-2,-3,-2,5,2,2020-10-21 18:12:59.681
-1,24,-1,-2,-3,-2,5,-5,2020-10-21 18:12:59.688
-6,-4,-5,1,1,5,-8,-4,2020-10-21 18:12:59.694
4,-4,-42,19,2,-2,-1,-4,2020-10-21 18:12:59.700
4,-4,-42,19,2,-2,-1,-4,2020-10-21 18:12:59.706
4,-4,-42,19,2,-2,-1,-18,2020-10-21 18:12:59.712
-15,-18,-24,-17,-1,-8,-7,0,2020-10-21 18:12:59.718
0,5,12,-6,-4,-16,-22,0,2020-10-21 18:12:59.724
0,5,12,-6,-4,-16,-22,0,2020-10-21 18:12:59.734
0,5,12,-6,-4,-16,-22,-5,2020-10-21 18:12:59.740
-6,-28,-15,2,10,-1,-4,-5,2020-10-21 18:12:59.746
-3,-5,5,-6,-4,10,2,-5,2020-10-21 18:12:59.753
-3,-5,5,-6,-4,10,2,3,2020-10-21 18:12:59.759
11,-6,7,4,9,15,-1,3,2020-10-21 18:12:59.764
11,-6,7,4,9,15,-1,-1,2020-10-21 18:12:59.771
-5,-14,8,4,0,-5,6,2,2020-10-21 18:12:59.777
2,9,-25,-14,0,8,9,2,2020-10-21 18:12:59.783
2,9,-25,-14,0,8,9,2,2020-10-21 18:12:59.791
2,9,-25,-14,0,8,9,24,2020-10-21 18:12:59.796
14,19,36,9,14,18,68,24,2020-10-21 18:12:59.802
14,19,36,9,14,18,68,-5,2020-10-21 18:12:59.810
-8,2,-12,-3,-7,-2,-42,10,2020-10-21 18:12:59.816
24,74,28,-18,-10,-7,3,10,2020-10-21 18:12:59.821
24,74,28,-18,-10,-7,3,-13,2020-10-21 18:12:59.828
-17,-35,-4,10,0,-17,-54,-13,2020-10-21 18:12:59.835
-17,-35,-4,10,0,-17,-54,-2,2020-10-21 18:12:59.842
-5,66,33,-17,-3,-3,-10,-2,2020-10-21 18:12:59.848
-5,66,33,-17,-3,-3,-10,-7,2020-10-21 18:12:59.855
-13,-23,-12,-3,-3,-2,-6,-7,2020-10-21 18:12:59.861
-13,-23,-12,-3,-3,-2,-6,-15,2020-10-21 18:12:59.869
-7,2,-10,-8,-6,-15,-24,-5,2020-10-21 18:12:59.883
-11,-55,-19,8,3,-13,42,0,2020-10-21 18:12:59.895
-4,-15,-2,3,1,0,1,20,2020-10-21 18:12:59.906
13,8,45,-10,-8,1,35,0,2020-10-21 18:12:59.913
0,-14,-16,-19,-5,8,-24,0,2020-10-21 18:12:59.920
0,-14,-16,-19,-5,8,-24,20,2020-10-21 18:12:59.927
4,-9,-12,9,12,35,102,-10,2020-10-21 18:12:59.938
-9,7,0,8,-2,-16,-33,-10,2020-10-21 18:12:59.944
-9,7,0,8,-2,-16,-33,9,2020-10-21 18:12:59.955
8,2,32,21,1,-3,9,-17,2020-10-21 18:12:59.961
-15,-23,-25,-1,-2,-3,22,-17,2020-10-21 18:12:59.967
-15,-23,-25,-1,-2,-3,22,-17,2020-10-21 18:12:59.976
-15,-23,-25,-1,-2,-3,22,9,2020-10-21 18:12:59.983
4,1,-24,27,3,-36,31,-29,2020-10-21 18:13:00.010
-16,-8,2,-27,-8,-17,-46,9,2020-10-21 18:13:00.045
1,18,-6,-13,-2,-16,3,5,2020-10-21 18:13:00.053
-2,-31,-6,-2,4,45,-32,-6,2020-10-21 18:13:00.059
-14,-7,-10,-5,-2,-42,47,-6,2020-10-21 18:13:00.066
-14,-7,-10,-5,-2,-42,47,-1,2020-10-21 18:13:00.073
1,-8,16,-2,-4,-25,-44,15,2020-10-21 18:13:00.079
13,-8,12,-3,-2,37,-42,15,2020-10-21 18:13:00.087
13,-8,12,-3,-2,37,-42,-1,2020-10-21 18:13:00.121
9,13,31,3,-7,-7,-44,-4,2020-10-21 18:13:00.129
-2,18,33,-4,1,4,5,-4,2020-10-21 18:13:00.140
-2,18,33,-4,1,4,5,-12,2020-10-21 18:13:00.146
-31,25,-2,-14,-5,7,-1,3,2020-10-21 18:13:00.154
-13,-28,3,10,6,18,1,3,2020-10-21 18:13:00.161
-13,-28,3,10,6,18,1,4,2020-10-21 18:13:00.168
19,3,-17,-1,-1,-5,-4,4,2020-10-21 18:13:00.175
19,3,-17,-1,-1,-5,-4,-11,2020-10-21 18:13:00.182
-19,9,19,17,4,-4,-2,-2,2020-10-21 18:13:00.190
-15,-27,0,-11,-5,-2,-4,13,2020-10-21 18:13:00.196
17,-15,-36,-2,1,5,27,13,2020-10-21 18:13:00.202
17,-15,-36,-2,1,5,27,13,2020-10-21 18:13:00.208
17,-15,-36,-2,1,5,27,0,2020-10-21 18:13:00.214
4,-8,-27,18,5,5,2,-7,2020-10-21 18:13:00.228
-3,-24,-1,-6,-6,-1,-5,-13,2020-10-21 18:13:00.233
0,-33,-23,30,0,-2,-3,-13,2020-10-21 18:13:00.239
0,-33,-23,30,0,-2,-3,-13,2020-10-21 18:13:00.245
0,-33,-23,30,0,-2,-3,-10,2020-10-21 18:13:00.251
-4,15,-18,-11,0,0,-7,-3,2020-10-21 18:13:00.257
1,-27,-18,-9,0,4,-21,-3,2020-10-21 18:13:00.263
1,-27,-18,-9,0,4,-21,-3,2020-10-21 18:13:00.269
1,-27,-18,-9,0,4,-21,1,2020-10-21 18:13:00.275
9,39,9,8,0,3,11,-18,2020-10-21 18:13:00.281
-5,-6,-8,-8,-11,-16,-28,-2,2020-10-21 18:13:00.287
3,-21,-21,-3,0,3,-10,-2,2020-10-21 18:13:00.293
3,-21,-21,-3,0,3,-10,-8,2020-10-21 18:13:00.299
2,-14,7,-1,-4,-10,-38,-8,2020-10-21 18:13:00.305
2,-14,7,-1,-4,-10,-38,8,2020-10-21 18:13:00.311
10,-2,17,16,8,5,18,8,2020-10-21 18:13:00.317
10,-2,17,16,8,5,18,-15,2020-10-21 18:13:00.324
-13,-38,-7,-15,-6,-9,-34,4,2020-10-21 18:13:00.330
4,33,14,9,4,3,-19,-5,2020-10-21 18:13:00.340
-8,8,-4,-13,-7,-7,-2,5,2020-10-21 18:13:00.345
10,10,16,-22,-11,-4,-2,5,2020-10-21 18:13:00.352
10,10,16,-22,-11,-4,-2,11,2020-10-21 18:13:00.358
-1,65,37,3,2,11,24,11,2020-10-21 18:13:00.364
-1,65,37,3,2,11,24,-2,2020-10-21 18:13:00.370
2,7,21,-3,2,-6,-33,7,2020-10-21 18:13:00.376
4,-45,-33,9,7,1,35,7,2020-10-21 18:13:00.382
4,-45,-33,9,7,1,35,7,2020-10-21 18:13:00.389
4,-45,-33,9,7,1,35,-5,2020-10-21 18:13:00.395
1,44,45,-5,0,-2,8,-6,2020-10-21 18:13:00.403
-6,2,-23,-2,2,0,-10,-6,2020-10-21 18:13:00.411
-6,2,-23,-2,2,0,-10,-6,2020-10-21 18:13:00.416
3,20,-20,29,5,-4,4,-6,2020-10-21 18:13:00.423
3,20,-20,29,5,-4,4,11,2020-10-21 18:13:00.429
16,-31,-11,5,3,5,9,3,2020-10-21 18:13:00.436
1,-42,-12,-16,-1,7,4,3,2020-10-21 18:13:00.441
1,-42,-12,-16,-1,7,4,3,2020-10-21 18:13:00.448
1,-42,-12,-16,-1,7,4,2,2020-10-21 18:13:00.454
-2,1,-8,1,0,-1,4,-5,2020-10-21 18:13:00.460
1,3,6,-6,-3,0,-1,-5,2020-10-21 18:13:00.466
1,3,6,-6,-3,0,-1,-1,2020-10-21 18:13:00.473
-7,-17,0,-5,-1,-3,-12,4,2020-10-21 18:13:00.479
5,23,19,1,3,5,2,4,2020-10-21 18:13:00.485
5,23,19,1,3,5,2,0,2020-10-21 18:13:00.493
-2,-7,2,6,3,-1,-1,6,2020-10-21 18:13:00.501
5,-8,-1,2,0,5,9,6,2020-10-21 18:13:00.510
5,-8,-1,2,0,5,9,-4,2020-10-21 18:13:00.516
-4,-2,-11,2,1,-3,-1,-4,2020-10-21 18:13:00.522
-4,-2,-11,2,1,-3,-1,-4,2020-10-21 18:13:00.529
-4,-2,-11,2,1,-3,-1,0,2020-10-21 18:13:00.537
-6,-5,-11,-6,-4,-2,5,0,2020-10-21 18:13:00.546
-6,-5,-11,-6,-4,-2,5,2,2020-10-21 18:13:00.553
4,-2,0,-2,-1,8,5,-2,2020-10-21 18:13:00.558
-4,1,14,1,2,4,3,-2,2020-10-21 18:13:00.564
-4,1,14,1,2,4,3,8,2020-10-21 18:13:00.571
23,81,67,-7,0,2,5,8,2020-10-21 18:13:00.577
23,81,67,-7,0,2,5,-6,2020-10-21 18:13:00.583
-8,-9,-8,-7,1,-13,1,-6,2020-10-21 18:13:00.590
-8,-9,-8,-7,1,-13,1,-1,2020-10-21 18:13:00.596
-1,-18,2,-5,-2,-3,-7,-1,2020-10-21 18:13:00.602
-1,-18,2,-5,-2,-3,-7,-8,2020-10-21 18:13:00.609
-9,-20,8,7,2,-2,-11,-8,2020-10-21 18:13:00.615
-9,-20,8,7,2,-2,-11,-6,2020-10-21 18:13:00.622
-11,-32,-43,-12,-7,2,-3,-6,2020-10-21 18:13:00.629
-11,-32,-43,-12,-7,2,-3,5,2020-10-21 18:13:00.636
4,21,-9,4,1,2,5,6,2020-10-21 18:13:00.642
8,8,38,4,-3,5,3,6,2020-10-21 18:13:00.648
8,8,38,4,-3,5,3,6,2020-10-21 18:13:00.655
8,8,38,4,-3,5,3,-2,2020-10-21 18:13:00.661
-7,-17,-7,0,5,5,3,-6,2020-10-21 18:13:00.668
-11,-33,-18,3,0,-4,3,-6,2020-10-21 18:13:00.674
-11,-33,-18,3,0,-4,3,0,2020-10-21 18:13:00.681
-1,-17,8,1,1,11,3,0,2020-10-21 18:13:00.695
-1,-17,8,1,1,11,3,1,2020-10-21 18:13:00.702
1,-6,3,5,3,-4,6,1,2020-10-21 18:13:00.709
1,-6,3,5,3,-4,6,-2,2020-10-21 18:13:00.715
4,9,-1,5,1,4,2,-2,2020-10-21 18:13:00.722
4,9,-1,5,1,4,2,10,2020-10-21 18:13:00.728
12,14,15,-11,-1,-4,4,10,2020-10-21 18:13:00.734
12,14,15,-11,-1,-4,4,-7,2020-10-21 18:13:00.741
-1,22,-9,1,-2,-13,-23,-7,2020-10-21 18:13:00.751
-1,22,-9,1,-2,-13,-23,-5,2020-10-21 18:13:00.757
-2,-6,-12,-10,-3,-6,-15,-9,2020-10-21 18:13:00.763
-7,-8,-17,9,-2,-14,-29,-9,2020-10-21 18:13:00.769
-7,-8,-17,9,-2,-14,-29,15,2020-10-21 18:13:00.777
16,38,37,-11,4,13,19,15,2020-10-21 18:13:00.782
16,38,37,-11,4,13,19,1,2020-10-21 18:13:00.789
-2,-37,5,-1,-11,-11,-11,1,2020-10-21 18:13:00.795
-2,-37,5,-1,-11,-11,-11,6,2020-10-21 18:13:00.801
11,43,-23,27,15,8,6,6,2020-10-21 18:13:00.807
11,43,-23,27,15,8,6,2,2020-10-21 18:13:00.813
-1,-7,17,-13,5,14,23,-8,2020-10-21 18:13:00.819
-1,-17,-9,-12,-7,-22,-29,-8,2020-10-21 18:13:00.825
-1,-17,-9,-12,-7,-22,-29,-8,2020-10-21 18:13:00.831
-1,-17,-9,-12,-7,-22,-29,1,2020-10-21 18:13:00.837
-11,-25,-12,-14,-2,20,44,1,2020-10-21 18:13:00.842
-11,-25,-12,-14,-2,20,44,8,2020-10-21 18:13:00.849
5,28,-14,-16,-11,-11,20,4,2020-10-21 18:13:00.856
4,-12,24,15,6,34,9,-23,2020-10-21 18:13:00.861
-16,-14,3,-12,-3,-56,-44,-23,2020-10-21 18:13:00.868
-16,-14,3,-12,-3,-56,-44,16,2020-10-21 18:13:00.875
16,41,-12,4,10,-11,0,-6,2020-10-21 18:13:00.881
2,-7,6,-2,-15,-6,-49,-6,2020-10-21 18:13:00.888
2,-7,6,-2,-15,-6,-49,2,2020-10-21 18:13:00.894
-3,-27,-37,3,3,17,11,-3,2020-10-21 18:13:00.900
-4,2,3,7,4,20,0,-3,2020-10-21 18:13:00.907
-5,-2,19,-5,0,12,-2,-3,2020-10-21 18:13:00.913
-5,-2,19,-5,0,12,-2,7,2020-10-21 18:13:00.923
1,1,1,-1,1,3,18,-5,2020-10-21 18:13:00.933
-4,0,12,6,3,-3,-23,-6,2020-10-21 18:13:00.940
-3,-16,-25,-14,-7,6,32,-6,2020-10-21 18:13:00.946
-3,-16,-25,-14,-7,6,32,-6,2020-10-21 18:13:00.956
-3,-16,-25,-14,-7,6,32,13,2020-10-21 18:13:00.962
67,43,8,0,2,16,28,-5,2020-10-21 18:13:00.968
-16,-4,8,-2,-2,-5,0,-5,2020-10-21 18:13:00.975
-16,-4,8,-2,-2,-5,0,1,2020-10-21 18:13:00.981
-15,-2,19,7,5,-2,-8,1,2020-10-21 18:13:00.988
-15,-2,19,7,5,-2,-8,5,2020-10-21 18:13:00.994
13,20,10,-3,2,9,4,4,2020-10-21 18:13:01.000
-1,-22,4,-2,-1,7,-3,4,2020-10-21 18:13:01.007
-1,-22,4,-2,-1,7,-3,-2,2020-10-21 18:13:01.014
6,-2,-13,-2,-2,-1,3,-6,2020-10-21 18:13:01.023
-15,-19,-42,0,0,-3,6,-8,2020-10-21 18:13:01.032
-3,-9,-13,2,0,0,-12,-8,2020-10-21 18:13:01.042
-12,15,4,-6,-3,-7,-9,-8,2020-10-21 18:13:01.051
-12,15,4,-6,-3,-7,-9,4,2020-10-21 18:13:01.058
9,13,13,3,-2,-7,-8,-9,2020-10-21 18:13:01.064
-14,-20,-23,29,3,-5,-12,-9,2020-10-21 18:13:01.071
-14,-20,-23,29,3,-5,-12,2,2020-10-21 18:13:01.077
-5,4,16,-8,-2,1,5,2,2020-10-21 18:13:01.083
-5,4,16,-8,-2,1,5,-4,2020-10-21 18:13:01.090
-6,-37,-22,-2,-1,2,-2,3,2020-10-21 18:13:01.096
3,-19,-8,-12,-4,1,0,3,2020-10-21 18:13:01.102
3,-19,-8,-12,-4,1,0,3,2020-10-21 18:13:01.108
3,-19,-8,-12,-4,1,0,-3,2020-10-21 18:13:01.114
-3,4,2,4,2,1,4,-10,2020-10-21 18:13:01.120
-19,-7,11,-12,-6,-6,-7,-10,2020-10-21 18:13:01.126
-19,-7,11,-12,-6,-6,-7,-10,2020-10-21 18:13:01.132
-19,-7,11,-12,-6,-6,-7,5,2020-10-21 18:13:01.139
0,-12,-12,-4,-1,-5,11,5,2020-10-21 18:13:01.144
0,-12,-12,-4,-1,-5,11,-1,2020-10-21 18:13:01.151
0,-13,-25,-15,-4,-5,-7,16,2020-10-21 18:13:01.160
15,26,61,9,8,12,13,16,2020-10-21 18:13:01.174
15,26,61,9,8,12,13,-1,2020-10-21 18:13:01.180
-5,-5,-34,-10,-5,-2,-3,-1,2020-10-21 18:13:01.186
-5,-5,-34,-10,-5,-2,-3,-1,2020-10-21 18:13:01.193
-5,-5,-34,-10,-5,-2,-3,-2,2020-10-21 18:13:01.198
-3,-2,2,0,1,5,-1,-1,2020-10-21 18:13:01.205
-2,36,20,3,2,1,-1,0,2020-10-21 18:13:01.211
0,28,4,-5,-3,0,2,2,2020-10-21 18:13:01.217
5,-3,-8,-5,-4,1,-1,2,2020-10-21 18:13:01.223
5,-3,-8,-5,-4,1,-1,-7,2020-10-21 18:13:01.229
-12,10,-8,-4,-1,-1,-1,6,2020-10-21 18:13:01.235
3,-3,-1,3,1,-8,-9,-9,2020-10-21 18:13:01.241
-7,-9,16,-3,-3,-2,-6,-9,2020-10-21 18:13:01.248
-7,-9,16,-3,-3,-2,-6,1,2020-10-21 18:13:01.254
-4,-21,-6,-3,-4,-1,4,7,2020-10-21 18:13:01.260
9,18,11,9,1,3,8,-3,2020-10-21 18:13:01.265
-6,-10,-14,-2,1,-3,1,3,2020-10-21 18:13:01.272
5,13,7,-4,-3,0,7,7,2020-10-21 18:13:01.278
11,37,-11,-5,-2,5,10,7,2020-10-21 18:13:01.284
11,37,-11,-5,-2,5,10,-4,2020-10-21 18:13:01.290
-4,1,-19,-8,-2,-3,-4,-4,2020-10-21 18:13:01.296
-4,1,-19,-8,-2,-3,-4,4,2020-10-21 18:13:01.302
9,7,5,1,-1,3,4,4,2020-10-21 18:13:01.308
9,7,5,1,-1,3,4,-6,2020-10-21 18:13:01.314
-13,-17,-13,-8,-3,5,9,-2,2020-10-21 18:13:01.320
-3,-33,-3,-3,-3,-13,-16,-2,2020-10-21 18:13:01.325
-3,-33,-3,-3,-3,-13,-16,-2,2020-10-21 18:13:01.332
-3,-33,-3,-3,-3,-13,-16,-1,2020-10-21 18:13:01.338
-4,-7,-6,-1,-2,-2,-1,-1,2020-10-21 18:13:01.344
-4,-7,-6,-1,-2,-2,-1,6,2020-10-21 18:13:01.350
7,-34,-31,11,11,11,6,6,2020-10-21 18:13:01.356
7,-34,-31,11,11,11,6,-6,2020-10-21 18:13:01.365
-4,1,-3,-2,1,-1,-5,-6,2020-10-21 18:13:01.372
-4,1,-3,-2,1,-1,-5,3,2020-10-21 18:13:01.377
2,26,15,-2,-3,2,3,-1,2020-10-21 18:13:01.383
-6,-38,-32,-7,-4,-2,4,-1,2020-10-21 18:13:01.391
-6,-38,-32,-7,-4,-2,4,-8,2020-10-21 18:13:01.398
-8,-24,-9,4,-2,-7,-12,-5,2020-10-21 18:13:01.404
-3,9,5,-4,-6,-5,-6,2,2020-10-21 18:13:01.410
2,0,14,-4,-6,-3,-3,2,2020-10-21 18:13:01.416
2,0,14,-4,-6,-3,-3,7,2020-10-21 18:13:01.422
-1,0,11,-4,3,8,9,7,2020-10-21 18:13:01.429
-1,0,11,-4,3,8,9,-5,2020-10-21 18:13:01.435
-2,-3,-4,-17,-3,-4,-6,-2,2020-10-21 18:13:01.441
-3,-15,-5,5,1,-2,-1,-2,2020-10-21 18:13:01.447
-3,-15,-5,5,1,-2,-1,-2,2020-10-21 18:13:01.453
-3,-15,-5,5,1,-2,-1,-5,2020-10-21 18:13:01.459
-6,-21,-9,-17,-3,-2,-6,-5,2020-10-21 18:13:01.465
-6,-21,-9,-17,-3,-2,-6,-2,2020-10-21 18:13:01.472
1,23,7,-5,-3,3,1,-2,2020-10-21 18:13:01.478
1,23,7,-5,-3,3,1,4,2020-10-21 18:13:01.484
3,-10,7,13,1,2,-1,4,2020-10-21 18:13:01.492
3,-10,7,13,1,2,-1,3,2020-10-21 18:13:01.499
4,15,51,32,4,1,-5,-7,2020-10-21 18:13:01.506
-8,-7,-17,-17,-8,-4,-3,-7,2020-10-21 18:13:01.513
-8,-7,-17,-17,-8,-4,-3,-3,2020-10-21 18:13:01.518
5,30,3,1,-1,-4,-7,-3,2020-10-21 18:13:01.525
5,30,3,1,-1,-4,-7,-5,2020-10-21 18:13:01.531
-8,-18,-12,-2,-1,-3,3,-5,2020-10-21 18:13:01.538
-8,-18,-12,-2,-1,-3,3,-1,2020-10-21 18:13:01.544
2,7,13,7,2,1,-1,-1,2020-10-21 18:13:01.550
2,7,13,7,2,1,-1,-7,2020-10-21 18:13:01.557
-4,-20,-21,1,-4,-11,-13,-2,2020-10-21 18:13:01.565
-3,0,-3,1,1,1,2,-2,2020-10-21 18:13:01.572
-3,0,-3,1,1,1,2,-4,2020-10-21 18:13:01.578
-1,-2,-14,-8,-4,-2,-2,-4,2020-10-21 18:13:01.584
-1,-2,-14,-8,-4,-2,-2,-1,2020-10-21 18:13:01.591
5,16,0,-7,-4,-1,0,-1,2020-10-21 18:13:01.597
5,16,0,-7,-4,-1,0,2,2020-10-21 18:13:01.602
0,-1,6,8,5,6,10,2,2020-10-21 18:13:01.609
0,-1,6,8,5,6,10,0,2020-10-21 18:13:01.623
-1,2,1,-7,-1,1,-1,-2,2020-10-21 18:13:01.629
-3,-5,-10,0,-3,-5,-9,-2,2020-10-21 18:13:01.635
-3,-5,-10,0,-3,-5,-9,-2,2020-10-21 18:13:01.641
-3,-5,-10,0,-3,-5,-9,-5,2020-10-21 18:13:01.648
-6,-16,-5,11,-2,-3,0,-6,2020-10-21 18:13:01.654
-8,-16,-12,-6,-1,-2,-1,4,2020-10-21 18:13:01.660
5,3,20,-6,-1,3,11,4,2020-10-21 18:13:01.666
5,3,20,-6,-1,3,11,0,2020-10-21 18:13:01.673
0,-11,-7,-12,-5,-3,-6,6,2020-10-21 18:13:01.678
-1,-22,-17,-4,1,-1,10,-4,2020-10-21 18:13:01.684
-2,24,12,0,-1,-3,-4,-4,2020-10-21 18:13:01.691
-2,24,12,0,-1,-3,-4,-1,2020-10-21 18:13:01.697
-1,5,-4,-1,1,-4,-10,-1,2020-10-21 18:13:01.703
-1,5,-4,-1,1,-4,-10,2,2020-10-21 18:13:01.709
-2,14,-4,4,1,2,7,2,2020-10-21 18:13:01.716
-2,14,-4,4,1,2,7,-1,2020-10-21 18:13:01.722
-1,1,1,1,-2,-3,-6,-1,2020-10-21 18:13:01.729
-1,1,1,1,-2,-3,-6,1,2020-10-21 18:13:01.734
2,-3,-1,9,0,-2,2,-1,2020-10-21 18:13:01.740
-3,-16,-13,-6,-3,0,-5,-1,2020-10-21 18:13:01.746
-3,-16,-13,-6,-3,0,-5,-1,2020-10-21 18:13:01.752
-3,-16,-13,-6,-3,0,-5,6,2020-10-21 18:13:01.758
7,37,5,6,-1,-7,5,6,2020-10-21 18:13:01.768
7,37,5,6,-1,-7,5,-2,2020-10-21 18:13:01.774
-1,8,-10,1,-2,3,-1,-4,2020-10-21 18:13:01.780
-4,2,-7,-9,-2,1,1,-4,2020-10-21 18:13:01.786
-4,2,-7,-9,-2,1,1,-4,2020-10-21 18:13:01.793
-4,2,-7,-9,-2,1,1,-5,2020-10-21 18:13:01.799
0,20,-26,21,-6,-6,-6,0,2020-10-21 18:13:01.805
-3,-18,-7,4,1,1,-4,0,2020-10-21 18:13:01.811
-3,-18,-7,4,1,1,-4,-15,2020-10-21 18:13:01.817
-7,-9,-1,1,-1,-6,-12,-15,2020-10-21 18:13:01.823
-7,-9,-1,1,-1,-6,-12,4,2020-10-21 18:13:01.830
6,0,21,-5,-1,0,1,4,2020-10-21 18:13:01.835
6,0,21,-5,-1,0,1,-2,2020-10-21 18:13:01.841
-1,-6,3,1,0,-1,-6,-2,2020-10-21 18:13:01.847
-1,-6,3,1,0,-1,-6,-2,2020-10-21 18:13:01.853
-4,21,5,-11,1,12,5,-2,2020-10-21 18:13:01.859
-4,21,5,-11,1,12,5,4,2020-10-21 18:13:01.865
7,-15,-20,8,1,3,-2,4,2020-10-21 18:13:01.872
7,-15,-20,8,1,3,-2,0,2020-10-21 18:13:01.878
-6,-8,-1,-17,-7,-1,11,0,2020-10-21 18:13:01.884
-6,-8,-1,-17,-7,-1,11,-2,2020-10-21 18:13:01.891
-4,-16,-15,2,1,0,-2,-2,2020-10-21 18:13:01.897
-4,-16,-15,2,1,0,-2,-1,2020-10-21 18:13:01.903
-1,8,3,2,-3,-3,0,-1,2020-10-21 18:13:01.909
-1,8,3,2,-3,-3,0,5,2020-10-21 18:13:01.915
1,-17,4,-2,1,0,3,6,2020-10-21 18:13:01.922
9,5,18,11,6,9,7,6,2020-10-21 18:13:01.928
9,5,18,11,6,9,7,6,2020-10-21 18:13:01.934
9,5,18,11,6,9,7,-1,2020-10-21 18:13:01.941
-2,7,4,-3,0,2,1,-1,2020-10-21 18:13:01.948
-2,7,4,-3,0,2,1,-5,2020-10-21 18:13:01.954
-3,-6,-10,-6,-6,-9,-6,-8,2020-10-21 18:13:01.960
-3,25,18,11,0,-10,-32,-8,2020-10-21 18:13:01.970
-3,25,18,11,0,-10,-32,-4,2020-10-21 18:13:01.976
-4,-24,-16,9,4,-3,0,-1,2020-10-21 18:13:01.982
-2,-6,3,-6,-4,-4,-6,-1,2020-10-21 18:13:01.988
-2,-6,3,-6,-4,-4,-6,-1,2020-10-21 18:13:01.995
-2,-6,3,-6,-4,-4,-6,-7,2020-10-21 18:13:02.001
-8,-23,-18,-14,-1,-5,-6,-7,2020-10-21 18:13:02.008
-8,-23,-18,-14,-1,-5,-6,4,2020-10-21 18:13:02.014
-1,-9,-9,-4,1,1,4,3,2020-10-21 18:13:02.020
0,5,1,3,-2,3,12,3,2020-10-21 18:13:02.026
0,5,1,3,-2,3,12,-2,2020-10-21 18:13:02.033
0,1,18,3,0,-2,-8,-2,2020-10-21 18:13:02.039
0,1,18,3,0,-2,-8,9,2020-10-21 18:13:02.045
7,-14,-2,9,8,4,10,9,2020-10-21 18:13:02.051
7,-14,-2,9,8,4,10,9,2020-10-21 18:13:02.058
7,-14,-2,9,8,4,10,-12,2020-10-21 18:13:02.064
-13,-6,1,-8,-7,-9,-17,1,2020-10-21 18:13:02.070
-1,0,3,1,0,1,4,1,2020-10-21 18:13:02.077
-1,0,3,1,0,1,4,1,2020-10-21 18:13:02.091
-1,-5,6,-6,-4,0,2,8,2020-10-21 18:13:02.097
4,-15,21,33,7,9,24,-1,2020-10-21 18:13:02.103
-1,-1,15,3,0,-6,-8,-1,2020-10-21 18:13:02.110
-1,-1,15,3,0,-6,-8,0,2020-10-21 18:13:02.116
2,2,2,-7,-2,-2,-5,-6,2020-10-21 18:13:02.123
-6,4,-4,-10,-7,-3,0,-6,2020-10-21 18:13:02.129
-6,4,-4,-10,-7,-3,0,-6,2020-10-21 18:13:02.135
-6,4,-4,-10,-7,-3,0,1,2020-10-21 18:13:02.141
2,15,26,-9,2,1,1,1,2020-10-21 18:13:02.147
2,15,26,-9,2,1,1,-5,2020-10-21 18:13:02.153
-7,-16,8,-1,-5,-5,-27,-5,2020-10-21 18:13:02.160
-7,-16,8,-1,-5,-5,-27,11,2020-10-21 18:13:02.170
15,9,34,11,6,9,20,3,2020-10-21 18:13:02.177
3,-8,-3,-4,-1,1,6,1,2020-10-21 18:13:02.183
0,-6,-6,-1,-3,0,0,-11,2020-10-21 18:13:02.190
-4,13,-13,-11,-7,-5,-16,-11,2020-10-21 18:13:02.196
-4,13,-13,-11,-7,-5,-16,10,2020-10-21 18:13:02.202
11,-25,-4,9,4,3,14,10,2020-10-21 18:13:02.209
11,-25,-4,9,4,3,14,2,2020-10-21 18:13:02.215
8,32,19,0,1,1,7,-1,2020-10-21 18:13:02.222
-3,-4,-12,-4,-2,4,7,-1,2020-10-21 18:13:02.228
-3,-4,-12,-4,-2,4,7,-1,2020-10-21 18:13:02.234
-3,-4,-12,-4,-2,4,7,0,2020-10-21 18:13:02.240
-3,-11,0,-2,0,-1,1,0,2020-10-21 18:13:02.246
-3,-11,0,-2,0,-1,1,2,2020-10-21 18:13:02.252
0,2,12,4,3,5,2,2,2020-10-21 18:13:02.259
4,23,19,-9,1,7,15,-12,2020-10-21 18:13:02.265
-10,-6,-8,15,1,-9,-17,-12,2020-10-21 18:13:02.271
-10,-6,-8,15,1,-9,-17,-3,2020-10-21 18:13:02.278
-4,0,-13,-1,-4,-4,-3,4,2020-10-21 18:13:02.284
1,-8,-4,-6,-1,0,1,4,2020-10-21 18:13:02.291
1,-8,-4,-6,-1,0,1,1,2020-10-21 18:13:02.297
0,-2,-9,1,0,-2,1,-14,2020-10-21 18:13:02.303
-12,-9,-17,-9,-5,-8,-24,-14,2020-10-21 18:13:02.310
-12,-9,-17,-9,-5,-8,-24,-14,2020-10-21 18:13:02.316
-12,-9,-17,-9,-5,-8,-24,1,2020-10-21 18:13:02.323
-1,-23,-11,0,0,-2,2,-1,2020-10-21 18:13:02.330
-1,8,-2,-10,-2,2,4,1,2020-10-21 18:13:02.338
1,21,35,4,1,-1,2,-4,2020-10-21 18:13:02.346
-7,-27,-19,0,0,-3,-4,-4,2020-10-21 18:13:02.352
-7,-27,-19,0,0,-3,-4,2,2020-10-21 18:13:02.358
0,-19,-8,5,2,4,12,0,2020-10-21 18:13:02.365
0,-4,7,1,1,5,10,0,2020-10-21 18:13:02.376
0,-4,7,1,1,5,10,1,2020-10-21 18:13:02.382
1,-3,-9,6,3,1,0,1,2020-10-21 18:13:02.390
1,-3,-9,6,3,1,0,-1,2020-10-21 18:13:02.396
-1,-3,-19,-6,-4,-8,-9,-2,2020-10-21 18:13:02.407
-5,-11,-20,-1,-4,-8,-7,-2,2020-10-21 18:13:02.422
-5,-11,-20,-1,-4,-8,-7,5,2020-10-21 18:13:02.430
2,11,2,-10,-1,0,2,5,2020-10-21 18:13:02.439
2,11,2,-10,-1,0,2,5,2020-10-21 18:13:02.446
6,17,16,-1,-1,2,5,-11,2020-10-21 18:13:02.458
-12,-42,-28,12,0,-6,-10,2,2020-10-21 18:13:02.465
2,20,12,5,1,1,4,2,2020-10-21 18:13:02.472
2,20,12,5,1,1,4,2,2020-10-21 18:13:02.478
0,-1,2,-3,0,1,0,2,2020-10-21 18:13:02.484
2,2,12,0,1,-3,-2,2,2020-10-21 18:13:02.490
2,2,12,0,1,-3,-2,2,2020-10-21 18:13:02.496
2,2,12,0,1,-3,-2,4,2020-10-21 18:13:02.504
3,12,12,-1,2,5,4,4,2020-10-21 18:13:02.512
3,12,12,-1,2,5,4,0,2020-10-21 18:13:02.517
-1,-1,7,1,-2,0,-7,-15,2020-10-21 18:13:02.524
-12,-26,-11,-2,-3,-5,-13,-15,2020-10-21 18:13:02.530
-12,-26,-11,-2,-3,-5,-13,-15,2020-10-21 18:13:02.536
-12,-26,-11,-2,-3,-5,-13,-15,2020-10-21 18:13:02.542
-12,-26,-11,-2,-3,-5,-13,0,2020-10-21 18:13:02.548
4,-11,-2,-9,-6,-5,-30,0,2020-10-21 18:13:02.555
4,-11,-2,-9,-6,-5,-30,-2,2020-10-21 18:13:02.561
1,24,9,0,-4,-6,-2,-2,2020-10-21 18:13:02.568
1,24,9,0,-4,-6,-2,9,2020-10-21 18:13:02.577
11,11,20,-6,0,5,1,6,2020-10-21 18:13:02.583
9,38,7,-12,0,4,1,6,2020-10-21 18:13:02.590
9,38,7,-12,0,4,1,1,2020-10-21 18:13:02.596
0,1,9,0,-1,4,4,8,2020-10-21 18:13:02.602
-4,-40,-40,2,1,13,55,8,2020-10-21 18:13:02.616
-4,-40,-40,2,1,13,55,-6,2020-10-21 18:13:02.623
-5,-27,-18,8,-2,-23,0,-6,2020-10-21 18:13:02.629
-5,-27,-18,8,-2,-23,0,0,2020-10-21 18:13:02.635
-6,-9,-8,-6,-11,1,6,-3,2020-10-21 18:13:02.642
-5,3,-6,-3,0,9,-8,-3,2020-10-21 18:13:02.649
-5,3,-6,-3,0,9,-8,-2,2020-10-21 18:13:02.655
0,48,-6,28,1,7,24,-1,2020-10-21 18:13:02.661
-7,-10,-19,1,2,15,11,-1,2020-10-21 18:13:02.668
-7,-10,-19,1,2,15,11,-1,2020-10-21 18:13:02.674
-7,-10,-19,1,2,15,11,-3,2020-10-21 18:13:02.680
-1,-28,-2,-1,10,-23,-5,-3,2020-10-21 18:13:02.686
-1,-28,-2,-1,10,-23,-5,-2,2020-10-21 18:13:02.692
-3,-20,-35,3,-5,-12,-22,-2,2020-10-21 18:13:02.698
-3,-20,-35,3,-5,-12,-22,1,2020-10-21 18:13:02.704
3,-2,-2,-12,-6,-16,-17,1,2020-10-21 18:13:02.710
3,-2,-2,-12,-6,-16,-17,-9,2020-10-21 18:13:02.716
-11,-33,-63,-22,-6,0,-13,-2,2020-10-21 18:13:02.723
0,14,-1,5,-1,4,-17,-2,2020-10-21 18:13:02.729
0,14,-1,5,-1,4,-17,-2,2020-10-21 18:13:02.735
0,14,-1,5,-1,4,-17,-2,2020-10-21 18:13:02.744
0,14,-1,5,-1,4,-17,4,2020-10-21 18:13:02.751
2,16,0,-1,-2,5,6,2,2020-10-21 18:13:02.757
4,17,31,-7,0,-4,2,-6,2020-10-21 18:13:02.763
-2,2,24,-2,-1,2,3,-6,2020-10-21 18:13:02.770
-2,2,24,-2,-1,2,3,-4,2020-10-21 18:13:02.780
-1,-39,-10,-4,2,-3,-4,1,2020-10-21 18:13:02.785
0,-15,-4,1,-2,5,0,1,2020-10-21 18:13:02.792
0,-15,-4,1,-2,5,0,-2,2020-10-21 18:13:02.798
-4,-19,1,-3,-4,-9,-1,5,2020-10-21 18:13:02.804
5,15,12,0,-2,5,13,5,2020-10-21 18:13:02.812
5,15,12,0,-2,5,13,2,2020-10-21 18:13:02.817
0,2,4,-5,1,-2,-5,-2,2020-10-21 18:13:02.823
-2,23,6,8,1,0,-9,-2,2020-10-21 18:13:02.830
-2,23,6,8,1,0,-9,0,2020-10-21 18:13:02.836
1,11,-3,6,2,1,-1,0,2020-10-21 18:13:02.842
1,11,-3,6,2,1,-1,0,2020-10-21 18:13:02.848
2,18,4,0,-2,2,0,0,2020-10-21 18:13:03.085
2,18,4,0,-2,2,0,0,2020-10-21 18:13:03.135
2,3,-7,-4,-7,-1,-3,-1,2020-10-21 18:13:03.153
1,-9,10,-20,0,1,-1,-7,2020-10-21 18:13:03.174
-4,-9,-7,-5,0,-3,-12,3,2020-10-21 18:13:03.191
5,-13,1,-2,3,6,1,2,2020-10-21 18:13:03.208
-1,-6,-3,9,2,0,12,-1,2020-10-21 18:13:03.218
-3,-17,5,-13,-8,1,-1,-8,2020-10-21 18:13:03.232
-9,4,19,-7,-1,-5,-16,-1,2020-10-21 18:13:03.257
5,14,-6,1,-1,1,2,-11,2020-10-21 18:13:03.270
-7,-21,10,-4,-6,0,-33,-6,2020-10-21 18:13:03.287
-7,-3,-18,-8,-5,-3,0,0,2020-10-21 18:13:03.306
2,11,26,-10,-2,4,12,1,2020-10-21 18:13:03.317
-1,-11,-3,-3,2,4,4,3,2020-10-21 18:13:03.334
0,9,-30,-5,-4,0,9,-18,2020-10-21 18:13:03.347
-15,-18,-18,11,-7,-20,-28,11,2020-10-21 18:13:03.358
7,3,-8,-4,3,8,3,11,2020-10-21 18:13:03.370
7,3,-8,-4,3,8,3,-2,2020-10-21 18:13:03.384
-2,-7,-13,-6,-5,-1,-6,3,2020-10-21 18:13:03.407
0,3,-6,9,7,7,26,2,2020-10-21 18:13:03.426
-2,-23,-8,-3,-5,-8,-11,10,2020-10-21 18:13:03.436
8,-15,-6,18,11,-4,31,10,2020-10-21 18:13:03.447
8,-15,-6,18,11,-4,31,18,2020-10-21 18:13:03.456
17,84,20,20,-7,7,83,18,2020-10-21 18:13:03.476
17,84,20,20,-7,7,83,-9,2020-10-21 18:13:03.500
-4,5,-16,-39,-13,-10,-28,-2,2020-10-21 18:13:03.521
-3,-14,0,0,2,-2,-28,-4,2020-10-21 18:13:03.557
-2,4,-8,8,2,1,-1,-5,2020-10-21 18:13:03.591
-4,8,-13,-18,-10,0,9,8,2020-10-21 18:13:03.605
6,-22,-4,3,4,0,2,4,2020-10-21 18:13:03.615
4,49,17,-3,0,3,2,4,2020-10-21 18:13:03.636
4,49,17,-3,0,3,2,-9,2020-10-21 18:13:03.655
-8,-2,5,0,-2,-4,-14,4,2020-10-21 18:13:03.674
4,-4,4,-1,0,3,11,-1,2020-10-21 18:13:03.687
-3,5,-6,-3,-2,-3,10,-6,2020-10-21 18:13:03.722
-10,-23,-10,-15,-5,-2,-10,-2,2020-10-21 18:13:03.785
0,3,2,12,0,-3,-2,0,2020-10-21 18:13:03.889
-2,-16,-9,-2,-1,-2,-9,-1,2020-10-21 18:13:03.914
4,17,8,2,1,2,-2,-4,2020-10-21 18:13:03.923
-8,-29,-3,6,2,-6,-9,-2,2020-10-21 18:13:03.934
-7,-10,-16,-6,0,0,0,-6,2020-10-21 18:13:03.944
-8,-13,-5,1,2,-9,-14,7,2020-10-21 18:13:03.956
1,-51,-14,3,3,4,12,-1,2020-10-21 18:13:03.967
0,21,9,2,1,8,-1,-1,2020-10-21 18:13:03.978
0,21,9,2,1,8,-1,1,2020-10-21 18:13:03.996
-5,-38,-18,-5,-3,-3,-6,-2,2020-10-21 18:13:04.009
-4,9,6,-14,-6,-2,-2,-3,2020-10-21 18:13:04.019
-5,-11,-9,-5,0,-1,-5,-1,2020-10-21 18:13:04.033
0,-7,1,5,-1,3,5,-3,2020-10-21 18:13:04.053
-12,4,15,3,2,1,-2,-5,2020-10-21 18:13:04.063
-2,-9,12,9,0,0,-5,2,2020-10-21 18:13:04.072
5,28,30,9,-4,-14,-7,2,2020-10-21 18:13:04.079
5,28,30,9,-4,-14,-7,0,2020-10-21 18:13:04.088
-2,-18,-18,-6,-2,1,6,-5,2020-10-21 18:13:04.094
2,14,11,-4,-1,-6,-8,-5,2020-10-21 18:13:04.101
2,14,11,-4,-1,-6,-8,-1,2020-10-21 18:13:04.107
-2,12,-5,2,-2,-9,-3,-1,2020-10-21 18:13:04.114
-2,12,-5,2,-2,-9,-3,3,2020-10-21 18:13:04.120
7,29,0,2,0,7,6,-1,2020-10-21 18:13:04.130
-4,-10,-8,-1,0,0,-1,-1,2020-10-21 18:13:04.136
-4,-10,-8,-1,0,0,-1,-1,2020-10-21 18:13:04.143
1,-3,-10,0,-1,-10,-5,-1,2020-10-21 18:13:04.149
6,21,-13,0,-1,2,-5,-1,2020-10-21 18:13:04.155
6,21,-13,0,-1,2,-5,-1,2020-10-21 18:13:04.161
6,21,-13,0,-1,2,-5,13,2020-10-21 18:13:04.168
12,-3,6,0,7,23,21,13,2020-10-21 18:13:04.175
12,-3,6,0,7,23,21,-1,2020-10-21 18:13:04.181
3,9,-7,-1,-3,-6,-4,7,2020-10-21 18:13:04.197
8,6,22,7,3,2,8,-3,2020-10-21 18:13:04.203
-4,-19,-12,-10,-3,0,-7,-3,2020-10-21 18:13:04.210
-4,-21,1,-2,-10,-5,-2,-3,2020-10-21 18:13:04.217
-4,-21,1,-2,-10,-5,-2,-5,2020-10-21 18:13:04.224
-9,-37,-18,-6,-3,-2,-12,-10,2020-10-21 18:13:04.232
-7,21,8,-6,-1,7,6,4,2020-10-21 18:13:04.239
2,17,0,2,2,-1,23,2,2020-10-21 18:13:04.246
2,-10,13,-12,-3,-1,-9,2,2020-10-21 18:13:04.253
2,-10,13,-12,-3,-1,-9,2,2020-10-21 18:13:04.262
2,-10,13,-12,-3,-1,-9,-4,2020-10-21 18:13:04.269
-4,5,-6,13,-1,-1,-8,-4,2020-10-21 18:13:04.276
-4,5,-6,13,-1,-1,-8,-4,2020-10-21 18:13:04.282
-4,5,-6,13,-1,-1,-8,-4,2020-10-21 18:13:04.288
-9,-1,2,-6,-5,-6,-5,-4,2020-10-21 18:13:04.295
-9,-1,2,-6,-5,-6,-5,-5,2020-10-21 18:13:04.303
-6,-12,-10,1,-4,-10,-12,0,2020-10-21 18:13:04.310
0,16,-3,3,3,1,4,0,2020-10-21 18:13:04.317
0,16,-3,3,3,1,4,-4,2020-10-21 18:13:04.323
4,51,-14,-15,-4,-2,-3,-3,2020-10-21 18:13:04.330
-4,11,-3,-6,-3,-5,-1,-3,2020-10-21 18:13:04.337
-4,11,-3,-6,-3,-5,-1,3,2020-10-21 18:13:04.350
2,-13,3,5,-2,-2,1,3,2020-10-21 18:13:04.358
6,-4,-13,-5,-3,-4,5,0,2020-10-21 18:13:04.366
1,-6,-13,5,0,-3,-7,0,2020-10-21 18:13:04.373
1,-6,-13,5,0,-3,-7,0,2020-10-21 18:13:04.380
1,-6,-13,5,0,-3,-7,0,2020-10-21 18:13:04.386
-1,-1,12,-3,6,5,5,2,2020-10-21 18:13:04.397
6,-1,10,12,4,0,3,-3,2020-10-21 18:13:04.405
-5,-14,0,-2,-2,-1,0,-1,2020-10-21 18:13:04.412
0,1,-6,-2,0,1,1,-1,2020-10-21 18:13:04.419
-2,4,9,1,-3,2,-1,-2,2020-10-21 18:13:04.425
-3,-18,-8,-5,-2,-3,-7,-2,2020-10-21 18:13:04.431
-3,-18,-8,-5,-2,-3,-7,-2,2020-10-21 18:13:04.437
-3,-18,-8,-5,-2,-3,-7,-3,2020-10-21 18:13:04.444
-5,-9,-3,2,-4,-9,-8,-3,2020-10-21 18:13:04.451
-3,10,-1,-7,-1,0,-9,-3,2020-10-21 18:13:04.457
-3,10,-1,-7,-1,0,-9,3,2020-10-21 18:13:04.464
-6,-38,-9,4,0,3,3,0,2020-10-21 18:13:04.470
0,-18,-5,4,-2,0,3,0,2020-10-21 18:13:04.477
0,-18,-5,4,-2,0,3,-2,2020-10-21 18:13:04.483
3,9,19,3,0,2,0,0,2020-10-21 18:13:04.490
-3,0,-3,7,2,-1,0,0,2020-10-21 18:13:04.505
-3,0,-3,7,2,-1,0,0,2020-10-21 18:13:04.520
-3,-12,-6,-2,3,5,15,-4,2020-10-21 18:13:04.527
-8,-9,-4,-3,-2,-1,0,-4,2020-10-21 18:13:04.534
-8,-9,-4,-3,-2,-1,0,-2,2020-10-21 18:13:04.541
1,18,0,-3,-3,0,0,0,2020-10-21 18:13:04.548
3,17,19,2,3,2,2,0,2020-10-21 18:13:04.554
3,17,19,2,3,2,2,3,2020-10-21 18:13:04.561
-2,-19,-5,2,-3,-2,3,2,2020-10-21 18:13:04.567
2,11,18,-18,-3,1,1,2,2020-10-21 18:13:04.574
2,11,18,-18,-3,1,1,2,2020-10-21 18:13:04.580
2,11,18,-18,-3,1,1,1,2020-10-21 18:13:04.586
2,15,21,1,1,-2,0,1,2020-10-21 18:13:04.592
2,15,21,1,1,-2,0,-1,2020-10-21 18:13:04.602
-5,-16,-10,-2,-1,-1,-2,1,2020-10-21 18:13:04.609
2,7,4,4,1,0,-3,1,2020-10-21 18:13:04.616
2,7,4,4,1,0,-3,2,2020-10-21 18:13:04.622
-5,-27,-23,-9,1,1,10,2,2020-10-21 18:13:04.631
5,-13,-15,-6,-2,-1,-1,2,2020-10-21 18:13:04.638
5,-13,-15,-6,-2,-1,-1,-5,2020-10-21 18:13:04.648
-4,-11,-16,14,0,-6,-2,-5,2020-10-21 18:13:04.659
-4,-11,-16,14,0,-6,-2,1,2020-10-21 18:13:04.665
4,-12,-30,-1,1,5,14,-2,2020-10-21 18:13:04.672
-3,-16,-23,-1,-1,1,2,-2,2020-10-21 18:13:04.678
-3,-16,-23,-1,-1,1,2,0,2020-10-21 18:13:04.684
-2,-9,8,-3,-2,-1,3,-2,2020-10-21 18:13:04.691
-1,13,-9,-3,0,2,-6,-2,2020-10-21 18:13:04.698
-1,13,-9,-3,0,2,-6,2,2020-10-21 18:13:04.704
0,-5,3,-9,2,-3,-4,2,2020-10-21 18:13:04.711
0,-5,3,-9,2,-3,-4,1,2020-10-21 18:13:04.717
-2,34,-9,-10,-4,-4,30,1,2020-10-21 18:13:04.723
-2,34,-9,-10,-4,-4,30,20,2020-10-21 18:13:04.730
14,67,52,3,26,15,75,20,2020-10-21 18:13:04.736
14,67,52,3,26,15,75,2,2020-10-21 18:13:04.743
2,-13,24,16,0,-9,-14,-1,2020-10-21 18:13:04.750
-6,-33,-31,-1,-10,-12,-6,-1,2020-10-21 18:13:04.756
-6,-33,-31,-1,-10,-12,-6,-1,2020-10-21 18:13:04.763
-6,-33,-31,-1,-10,-12,-6,-10,2020-10-21 18:13:04.769
-6,-11,-3,2,-6,-4,-31,-10,2020-10-21 18:13:04.776
-6,-11,-3,2,-6,-4,-31,4,2020-10-21 18:13:04.782
2,-19,-15,13,-5,-1,-1,0,2020-10-21 18:13:04.788
0,-21,-25,3,-1,0,-2,0,2020-10-21 18:13:04.795
0,-21,-25,3,-1,0,-2,1,2020-10-21 18:13:04.805
2,24,4,6,4,2,-4,1,2020-10-21 18:13:04.817
1,9,11,3,-2,4,-15,-6,2020-10-21 18:13:04.823
-3,-1,-5,-3,3,2,-3,-6,2020-10-21 18:13:04.830
-6,-10,-6,-6,-8,0,-19,-6,2020-10-21 18:13:04.836
-6,-10,-6,-6,-8,0,-19,-1,2020-10-21 18:13:04.844
2,6,40,1,-2,-1,4,-10,2020-10-21 18:13:04.850
-8,-47,-1,-5,-6,-10,-15,-10,2020-10-21 18:13:04.857
-8,-47,-1,-5,-6,-10,-15,-5,2020-10-21 18:13:04.863
-5,-16,-8,11,-1,-6,-14,10,2020-10-21 18:13:04.870
10,33,40,-16,-3,-4,0,10,2020-10-21 18:13:04.876
10,33,40,-16,-3,-4,0,10,2020-10-21 18:13:04.882
10,33,40,-16,-3,-4,0,-5,2020-10-21 18:13:04.889
-7,-13,-12,0,-2,-6,-6,-5,2020-10-21 18:13:04.896
-7,-13,-12,0,-2,-6,-6,1,2020-10-21 18:13:04.902
3,10,37,3,4,-1,-6,2,2020-10-21 18:13:04.911
-1,12,-4,9,-1,0,6,2,2020-10-21 18:13:04.917
-1,12,-4,9,-1,0,6,-4,2020-10-21 18:13:04.922
1,15,0,19,0,-5,-20,-3,2020-10-21 18:13:04.928
-2,-3,3,2,-2,3,2,-3,2020-10-21 18:13:04.934
-2,-3,3,2,-2,3,2,-3,2020-10-21 18:13:04.941
-2,-3,3,2,-2,3,2,13,2020-10-21 18:13:04.946
12,0,19,-8,2,5,-12,-3,2020-10-21 18:13:04.953
-11,-10,-55,5,15,6,48,-3,2020-10-21 18:13:04.960
-11,-10,-55,5,15,6,48,-3,2020-10-21 18:13:04.975
-11,-10,-55,5,15,6,48,-14,2020-10-21 18:13:04.983
-14,-12,-6,-10,-7,-6,-3,-5,2020-10-21 18:13:04.989
-2,12,-19,3,-10,-5,-2,-5,2020-10-21 18:13:04.995
-2,12,-19,3,-10,-5,-2,-5,2020-10-21 18:13:05.005
-2,12,-19,3,-10,-5,-2,10,2020-10-21 18:13:05.014
8,40,36,-7,-2,10,3,0,2020-10-21 18:13:05.022
7,24,8,-5,4,-1,-2,2,2020-10-21 18:13:05.029
1,4,30,23,-1,8,2,2,2020-10-21 18:13:05.035
1,4,30,23,-1,8,2,-2,2020-10-21 18:13:05.042
-4,-21,-13,0,1,-2,-1,-11,2020-10-21 18:13:05.049
-9,5,-4,-20,-10,-6,-18,-11,2020-10-21 18:13:05.055
-9,5,-4,-20,-10,-6,-18,-11,2020-10-21 18:13:05.070
-9,5,-4,-20,-10,-6,-18,3,2020-10-21 18:13:05.076
9,0,2,-10,-4,-4,-2,3,2020-10-21 18:13:05.084
9,0,2,-10,-4,-4,-2,-2,2020-10-21 18:13:05.090
2,-4,23,-9,-2,3,-3,-2,2020-10-21 18:13:05.097
2,-4,23,-9,-2,3,-3,-8,2020-10-21 18:13:05.103
-9,4,5,-12,-4,-2,-2,0,2020-10-21 18:13:05.111
3,8,2,-11,-1,-2,0,0,2020-10-21 18:13:05.123
3,8,2,-11,-1,-2,0,1,2020-10-21 18:13:05.130
3,18,-1,-6,0,-1,-3,1,2020-10-21 18:13:05.136
3,18,-1,-6,0,-1,-3,1,2020-10-21 18:13:05.142
3,18,-1,-6,0,-1,-3,-5,2020-10-21 18:13:05.150
-6,-9,-14,3,2,-4,-8,-5,2020-10-21 18:13:05.312
-6,-9,-14,3,2,-4,-8,0,2020-10-21 18:13:05.357
0,-14,1,9,3,1,2,5,2020-10-21 18:13:05.371
3,18,0,-3,3,4,9,-2,2020-10-21 18:13:05.382
-2,2,1,-1,0,-2,-1,3,2020-10-21 18:13:05.389
2,-19,-5,1,2,3,3,3,2020-10-21 18:13:05.399
2,-19,-5,1,2,3,3,2,2020-10-21 18:13:05.408
2,-2,0,-8,-5,-1,13,-2,2020-10-21 18:13:05.419
1,36,17,1,-4,-4,-2,13,2020-10-21 18:13:05.428
17,-12,28,23,8,5,8,-3,2020-10-21 18:13:05.435
-5,-19,-17,-2,1,3,3,-3,2020-10-21 18:13:05.445
-5,-19,-17,-2,1,3,3,-3,2020-10-21 18:13:05.456
-5,-19,-17,-2,1,3,3,1,2020-10-21 18:13:05.464
0,1,-6,-12,-1,3,4,-8,2020-10-21 18:13:05.470
-7,-7,-14,-10,-2,-2,-2,-8,2020-10-21 18:13:05.479
-7,-7,-14,-10,-2,-2,-2,-1,2020-10-21 18:13:05.485
3,37,2,1,-1,0,-1,2,2020-10-21 18:13:05.492
2,-3,18,-2,-1,-3,6,2,2020-10-21 18:13:05.504
2,-3,18,-2,-1,-3,6,4,2020-10-21 18:13:05.512
0,7,-12,-2,0,-3,-2,4,2020-10-21 18:13:05.520
0,7,-12,-2,0,-3,-2,-5,2020-10-21 18:13:05.527
-9,-17,-34,2,3,1,-4,-3,2020-10-21 18:13:05.533
-5,-19,-7,-8,-2,-1,3,-3,2020-10-21 18:13:05.539
-5,-19,-7,-8,-2,-1,3,-6,2020-10-21 18:13:05.547
-6,-1,-3,-2,-4,-4,-8,4,2020-10-21 18:13:05.553
2,-18,-2,4,0,3,6,4,2020-10-21 18:13:05.560
2,-18,-2,4,0,3,6,-1,2020-10-21 18:13:05.566
-1,-13,2,-7,-1,1,6,1,2020-10-21 18:13:05.573
2,12,-2,7,1,4,4,1,2020-10-21 18:13:05.579
2,12,-2,7,1,4,4,-3,2020-10-21 18:13:05.586
-3,4,-27,-18,-3,-2,-3,-1,2020-10-21 18:13:05.594
0,19,16,-10,-3,1,-5,-1,2020-10-21 18:13:05.601
0,19,16,-10,-3,1,-5,4,2020-10-21 18:13:05.611
3,-14,11,0,-1,4,6,-5,2020-10-21 18:13:05.617
-4,-6,-9,-4,-2,-5,-8,-5,2020-10-21 18:13:05.623
-4,-6,-9,-4,-2,-5,-8,-1,2020-10-21 18:13:05.630
0,-4,3,5,1,-3,-3,-1,2020-10-21 18:13:05.636
0,-4,3,5,1,-3,-3,-3,2020-10-21 18:13:05.642
-3,0,0,3,0,-2,-5,-2,2020-10-21 18:13:05.648
1,6,-1,2,2,0,-3,-2,2020-10-21 18:13:05.654
1,6,-1,2,2,0,-3,-2,2020-10-21 18:13:05.660
1,6,-1,2,2,0,-3,-3,2020-10-21 18:13:05.666
-4,-16,-3,-2,-2,-5,-7,1,2020-10-21 18:13:05.673
2,-6,-2,5,3,2,1,1,2020-10-21 18:13:05.679
2,-6,-2,5,3,2,1,2,2020-10-21 18:13:05.685
2,-6,2,4,3,3,1,-1,2020-10-21 18:13:05.692
3,50,11,5,1,-2,0,-1,2020-10-21 18:13:05.702
3,50,11,5,1,-2,0,1,2020-10-21 18:13:05.709
2,9,-5,-2,-3,-1,-2,1,2020-10-21 18:13:05.715
2,9,-5,-2,-3,-1,-2,1,2020-10-21 18:13:05.721
2,9,-5,-2,-3,-1,-2,1,2020-10-21 18:13:05.728
2,9,-5,-2,-3,-1,-2,-6,2020-10-21 18:13:05.734
-6,-10,-17,2,5,-4,-17,-6,2020-10-21 18:13:05.739
-6,-10,-17,2,5,-4,-17,-6,2020-10-21 18:13:05.745
-6,-10,-17,2,5,-4,-17,1,2020-10-21 18:13:05.753
-1,6,11,-7,-8,1,4,1,2020-10-21 18:13:05.764
-1,6,11,-7,-8,1,4,5,2020-10-21 18:13:05.770
3,-26,-17,0,-2,-2,-1,5,2020-10-21 18:13:05.777
3,-26,-17,0,-2,-2,-1,5,2020-10-21 18:13:05.782
3,-26,-17,0,-2,-2,-1,5,2020-10-21 18:13:05.788
3,-26,-17,0,-2,-2,-1,2,2020-10-21 18:13:05.795
-6,9,15,-3,-4,7,6,-11,2020-10-21 18:13:05.801
-13,-40,-32,-2,-2,1,-13,6,2020-10-21 18:13:05.807
-4,-21,-3,15,-6,-11,11,6,2020-10-21 18:13:05.814
-4,-21,-3,15,-6,-11,11,10,2020-10-21 18:13:05.820
5,44,15,-41,-5,26,49,10,2020-10-21 18:13:05.833
5,44,15,-41,-5,26,49,-13,2020-10-21 18:13:05.839
13,55,15,34,-8,-48,-89,8,2020-10-21 18:13:05.845
4,38,9,-6,1,-4,27,-1,2020-10-21 18:13:05.851
-2,-34,14,-12,1,1,7,-1,2020-10-21 18:13:05.857
-2,-34,14,-12,1,1,7,-1,2020-10-21 18:13:05.863
-2,-34,14,-12,1,1,7,3,2020-10-21 18:13:05.870
-2,-12,3,1,7,5,17,3,2020-10-21 18:13:05.879
-2,-12,3,1,7,5,17,-3,2020-10-21 18:13:05.888
1,-21,5,2,-1,3,3,1,2020-10-21 18:13:05.895
1,31,8,-10,-2,9,14,1,2020-10-21 18:13:05.906
1,31,8,-10,-2,9,14,-9,2020-10-21 18:13:05.918
-14,-10,-19,-5,1,15,13,-9,2020-10-21 18:13:05.925
-14,-10,-19,-5,1,15,13,15,2020-10-21 18:13:05.932
2,-18,-7,6,2,-4,-6,-7,2020-10-21 18:13:05.938
-24,35,10,-9,0,7,11,-1,2020-10-21 18:13:05.945
16,22,20,-3,-4,-3,-3,2,2020-10-21 18:13:05.952
8,1,16,12,4,2,3,2,2020-10-21 18:13:05.958
8,1,16,12,4,2,3,7,2020-10-21 18:13:05.965
7,-1,11,-13,-6,7,8,-10,2020-10-21 18:13:05.976
-8,-31,-42,-17,-6,-10,-6,-10,2020-10-21 18:13:05.986
