Avg EMG - Pod01,Avg EMG - Pod02,Avg EMG - Pod03,Avg EMG - Pod04,Avg EMG - Pod05,Avg EMG - Pod06,Avg EMG - Pod07,Avg EMG - Pod08,Start Timestamp
24,2,32,8,6,46,4,19,12,2,5,6,52,6,2020-10-21 18:12:46.661
34,6,45,9,51,8,19,8,17,6,11,6,48,8,2020-10-21 18:12:46.730
36,6,33,8,7,8,38,2,31,29,6,23,37,6,2020-10-21 18:12:46.744
47,6,29,8,9,6,29,4,46,44,2,36,8,26,4,2020-10-21 18:12:46.766
58,6,25,8,11,4,20,6,61,58,8,50,6,24,4,2020-10-21 18:12:46.775
57,6,38,8,22,31,8,73,2,63,4,64,2,16,6,2020-10-21 18:12:46.786
48,8,43,32,2,51,73,63,2,69,4,23,2020-10-21 18:12:46.841
50,2,43,2,38,2,68,64,2,48,2,55,6,26,6,2020-10-21 18:12:46.894
38,55,6,39,6,86,46,2,33,45,36,6,2020-10-21 18:12:46.911
32,4,57,6,50,8,106,4,32,17,2,34,8,32,8,2020-10-21 18:12:46.933
38,4,52,2,42,4,98,4,23,8,13,2,20,8,42,2020-10-21 18:12:46.944
38,36,8,33,8,99,4,23,6,10,8,10,39,8,2020-10-21 18:12:46.956
26,38,6,25,8,94,6,20,8,25,16,6,36,2,2020-10-21 18:12:46.967
30,4,31,23,76,22,26,14,8,25,8,2020-10-21 18:12:46.980
27,2,30,2,8,6,54,21,2,26,4,10,4,29,2020-10-21 18:12:46.999
21,4,18,6,9,2,45,6,17,6,26,10,6,23,6,2020-10-21 18:12:47.019
20,4,20,6,14,6,22,4,18,2,27,15,19,2,2020-10-21 18:12:47.035
23,4,17,2,14,8,9,4,11,4,12,10,4,20,8,2020-10-21 18:12:47.049
17,8,16,8,24,4,8,6,10,6,13,8,15,4,20,8,2020-10-21 18:12:47.060
12,18,4,28,8,12,8,7,4,12,4,22,16,2020-10-21 18:12:47.069
10,18,4,27,6,9,6,5,12,23,8,12,8,2020-10-21 18:12:47.093
12,6,16,6,30,6,7,6,4,2,8,8,19,6,11,6,2020-10-21 18:12:47.099
6,4,20,30,8,10,4,3,8,9,2,18,8,8,6,2020-10-21 18:12:47.108
6,17,6,21,13,8,2,6,6,2,13,6,8,8,2020-10-21 18:12:47.116
8,4,13,6,24,2,10,4,2,2,7,6,7,2,4,8,2020-10-21 18:12:47.123
10,12,4,28,8,9,2,0,6,7,5,5,4,2020-10-21 18:12:47.131
7,4,14,6,23,12,2,1,8,9,4,8,6,5,4,2020-10-21 18:12:47.139
10,8,27,8,22,8,10,4,3,8,9,9,7,8,2020-10-21 18:12:47.146
12,26,4,23,8,8,4,8,10,6,17,4,6,8,2020-10-21 18:12:47.163
10,8,25,6,19,9,6,4,9,6,17,6,7,6,2020-10-21 18:12:47.170
14,6,31,12,10,4,8,2,8,8,18,7,6,2020-10-21 18:12:47.178
16,4,34,11,7,2,7,4,8,8,17,8,6,2020-10-21 18:12:47.185
14,23,8,13,2,5,6,6,10,6,17,8,5,8,2020-10-21 18:12:47.192
14,4,32,18,2,5,6,6,9,6,10,4,5,8,2020-10-21 18:12:47.199
13,40,2,15,8,6,5,8,9,11,2,5,2020-10-21 18:12:47.207
10,4,40,8,15,4,5,4,2,9,8,11,2,5,2,2020-10-21 18:12:47.213
12,2,40,6,12,6,4,8,4,8,6,4,2,2020-10-21 18:12:47.220
11,8,36,6,10,8,8,5,2,6,6,6,6,4,6,2020-10-21 18:12:47.228
10,8,28,8,5,6,9,6,5,6,4,8,4,8,2020-10-21 18:12:47.236
10,8,26,4,5,6,8,4,4,6,2,5,4,2020-10-21 18:12:47.244
7,25,4,5,8,8,4,5,2,5,8,3,2,2020-10-21 18:12:47.250
6,4,24,8,7,2,7,4,4,4,6,2,3,6,2020-10-21 18:12:47.257
8,28,6,4,5,3,4,3,2,6,3,4,2020-10-21 18:12:47.262
9,27,8,4,4,4,6,3,8,2,2,5,4,5,2020-10-21 18:12:47.270
11,6,26,6,4,6,2,4,2,5,4,6,2,2020-10-21 18:12:47.277
16,4,23,2,14,6,5,8,5,2,2,4,8,7,4,2020-10-21 18:12:47.282
18,19,4,24,6,4,5,2,2,6,4,6,8,4,2020-10-21 18:12:47.289
18,2,13,24,6,4,4,8,3,2,4,9,6,2020-10-21 18:12:47.296
17,8,19,2,27,5,8,3,2,3,6,7,8,6,2020-10-21 18:12:47.302
17,4,23,6,30,4,4,2,3,6,3,8,9,2,8,4,2020-10-21 18:12:47.308
13,8,26,2,21,4,3,6,3,6,6,11,6,7,2,2020-10-21 18:12:47.315
10,4,33,4,11,6,4,8,3,5,4,11,6,2,2020-10-21 18:12:47.321
8,4,43,2,11,2,6,6,3,4,6,10,8,7,4,2020-10-21 18:12:47.329
7,6,42,12,4,5,6,2,6,6,4,9,8,6,2020-10-21 18:12:47.375
6,8,40,8,13,6,4,6,2,2,8,2,7,2,9,4,2020-10-21 18:12:47.389
7,43,6,16,2,4,6,1,4,7,6,5,8,9,2,2020-10-21 18:12:47.399
6,34,19,2,4,4,1,4,8,4,7,4,14,2,2020-10-21 18:12:47.405
9,8,26,4,21,4,6,2,10,2,10,4,17,4,2020-10-21 18:12:47.412
13,6,20,6,19,4,6,6,2,8,9,8,11,8,20,6,2020-10-21 18:12:47.420
17,4,14,8,17,8,8,6,3,6,9,4,13,2,19,6,2020-10-21 18:12:47.432
16,4,11,6,19,4,9,2,3,8,9,4,14,2,20,6,2020-10-21 18:12:47.442
16,4,16,2,21,4,8,2,3,8,10,8,15,2,15,8,2020-10-21 18:12:47.449
12,18,19,6,7,4,3,8,10,4,12,4,11,2020-10-21 18:12:47.456
7,6,19,8,17,8,6,6,3,8,10,9,6,5,4,2020-10-21 18:12:47.460
3,4,18,4,18,6,8,4,2,10,4,7,8,4,2020-10-21 18:12:47.466
4,14,4,16,2,10,8,5,2,10,4,6,4,3,6,2020-10-21 18:12:47.477
4,8,10,4,12,8,11,4,5,8,8,5,8,3,8,2020-10-21 18:12:47.483
5,2,7,2,14,4,11,4,5,8,6,4,7,6,3,2,2020-10-21 18:12:47.490
6,4,7,14,6,11,2,5,8,6,4,7,8,3,4,2020-10-21 18:12:47.497
7,4,10,12,2,8,8,5,4,5,6,7,5,2020-10-21 18:12:47.504
9,6,23,13,2,5,8,5,8,3,8,7,4,6,2020-10-21 18:12:47.512
10,2,34,2,14,4,5,2,4,8,4,4,7,7,2020-10-21 18:12:47.519
10,8,45,4,15,6,4,6,3,8,5,6,6,8,8,2020-10-21 18:12:47.524
10,6,53,6,18,2,4,2,2,8,4,7,8,8,8,2020-10-21 18:12:47.532
9,2,50,17,8,3,2,2,4,2,7,4,7,2,2020-10-21 18:12:47.538
6,4,36,8,15,4,3,6,0,4,4,6,5,2,2020-10-21 18:12:47.544
5,25,4,13,8,3,8,0,6,3,8,4,6,3,6,2020-10-21 18:12:47.551
4,6,22,6,11,8,5,2,1,3,6,4,4,2,2020-10-21 18:12:47.558
4,2,19,8,9,8,6,6,1,4,3,4,4,2,2,6,2020-10-21 18:12:47.564
6,26,10,7,8,1,2,3,4,2,2,4,2020-10-21 18:12:47.570
7,2,36,2,9,2,8,2,1,2,6,4,6,3,6,2020-10-21 18:12:47.577
7,6,38,4,7,4,8,6,2,2,4,6,7,2,4,4,2020-10-21 18:12:47.583
7,32,6,7,8,3,2,6,6,8,6,5,8,2020-10-21 18:12:47.591
6,6,33,9,8,7,3,6,4,7,6,6,2,2020-10-21 18:12:47.599
4,8,27,6,12,5,8,4,8,6,8,8,7,6,2020-10-21 18:12:47.605
3,8,17,8,13,8,4,6,6,6,7,9,4,6,6,2020-10-21 18:12:47.612
5,4,20,4,17,4,4,6,6,5,6,7,2,5,6,2020-10-21 18:12:47.618
7,23,20,2,4,2,6,6,4,2,5,7,2020-10-21 18:12:47.624
11,27,19,6,3,8,7,4,6,6,4,6,8,2020-10-21 18:12:47.631
13,6,35,21,6,6,4,5,6,4,6,5,2,6,6,2020-10-21 18:12:47.637
16,2,43,23,6,9,4,2,4,6,4,6,8,2020-10-21 18:12:47.644
16,38,8,23,8,2,8,3,6,4,2,7,6,2020-10-21 18:12:47.652
15,2,35,2,22,8,8,4,1,6,2,8,4,6,5,4,2020-10-21 18:12:47.664
11,8,22,8,21,2,9,1,2,2,4,3,8,5,4,2020-10-21 18:12:47.672
10,2,15,6,19,4,7,8,1,1,6,4,8,5,8,2020-10-21 18:12:47.682
9,2,15,8,14,4,6,2,1,8,2,4,7,4,6,8,2020-10-21 18:12:47.690
9,2,23,8,11,6,7,2,3,4,2,9,2,6,6,2020-10-21 18:12:47.696
9,2,29,8,12,6,5,8,3,5,8,9,2,5,4,2020-10-21 18:12:47.702
10,8,47,4,16,5,6,3,2,6,4,10,4,2,2020-10-21 18:12:47.709
12,4,65,19,4,5,4,3,4,7,10,8,3,2,2020-10-21 18:12:47.716
12,4,70,6,20,8,4,4,2,8,5,4,8,4,2020-10-21 18:12:47.722
12,2,63,2,21,4,5,2,2,2,3,8,6,8,5,4,2020-10-21 18:12:47.730
12,6,57,2,17,8,7,2,6,2,2,7,2,5,8,2020-10-21 18:12:47.739
9,6,41,12,4,6,8,3,4,4,8,5,6,6,2,2020-10-21 18:12:47.747
7,26,2,8,4,9,3,4,8,4,4,6,2020-10-21 18:12:47.755
5,4,16,9,6,12,4,2,4,5,4,5,2,4,6,2020-10-21 18:12:47.762
3,6,29,8,11,6,10,8,2,8,6,2,3,8,3,2020-10-21 18:12:47.768
3,6,29,2,14,8,8,8,2,6,6,3,6,3,4,2020-10-21 18:12:47.775
5,4,27,2,17,4,7,6,1,8,2,6,4,6,3,4,2020-10-21 18:12:47.781
7,2,33,2,20,4,5,6,3,2,2,5,4,6,2020-10-21 18:12:47.787
9,8,29,6,25,4,4,2,4,8,3,5,6,5,2,2020-10-21 18:12:47.794
11,4,16,28,4,7,4,5,2,6,5,8,6,2020-10-21 18:12:47.800
11,2,16,8,30,2,11,5,8,3,2,4,8,6,2020-10-21 18:12:47.806
11,2,17,4,28,8,11,2,5,8,5,8,4,6,4,2020-10-21 18:12:47.813
10,8,8,6,25,6,9,8,4,8,8,2,3,4,5,2,2020-10-21 18:12:47.821
8,6,11,2,20,8,7,8,3,6,7,8,3,2,4,4,2020-10-21 18:12:47.826
8,6,14,6,18,4,8,3,8,4,2,8,3,4,2020-10-21 18:12:47.833
7,6,15,4,12,6,2,2,1,8,7,8,3,4,2,6,2020-10-21 18:12:47.839
5,8,19,4,12,4,4,1,6,5,8,4,8,1,8,2020-10-21 18:12:47.846
4,23,4,11,4,6,6,1,4,3,8,6,2,1,4,2020-10-21 18:12:47.852
3,2,25,6,10,4,8,8,1,2,3,7,2,2,2020-10-21 18:12:47.859
5,4,25,9,8,11,2,1,4,3,2,9,2,2,2020-10-21 18:12:47.864
5,6,28,2,10,2,11,1,6,3,2,8,6,3,4,2020-10-21 18:12:47.870
7,8,23,4,9,6,11,4,2,3,8,9,4,6,2,2020-10-21 18:12:47.877
9,4,28,4,11,9,2,2,2,4,2,9,4,9,2020-10-21 18:12:47.887
11,33,4,12,4,7,2,4,4,6,9,4,7,6,2020-10-21 18:12:47.894
7,6,36,2,10,4,8,1,8,3,6,9,9,4,2020-10-21 18:12:47.900
8,34,8,9,4,4,1,8,6,8,12,4,10,6,2020-10-21 18:12:47.909
7,38,4,7,4,2,1,4,8,8,13,6,10,2,2020-10-21 18:12:47.917
6,6,32,2,3,8,2,2,1,2,11,15,6,8,4,2020-10-21 18:12:47.924
7,31,4,9,6,6,6,1,8,11,2,14,6,9,2,2020-10-21 18:12:47.934
8,27,8,10,4,6,8,1,8,12,2,14,2,7,8,2020-10-21 18:12:47.942
8,2,27,2,11,4,7,4,1,8,10,4,11,4,6,4,2020-10-21 18:12:47.949
7,8,23,6,12,8,7,8,2,7,4,8,8,5,2020-10-21 18:12:47.963
7,4,20,14,2,8,2,2,2,4,4,6,2,4,6,2020-10-21 18:12:47.975
5,4,10,4,6,2,3,8,1,6,3,8,5,2,4,2,2020-10-21 18:12:47.985
4,8,16,8,7,8,3,4,1,8,2,4,4,6,3,8,2020-10-21 18:12:47.992
4,2,23,2,9,4,3,2,1,4,3,4,2020-10-21 18:12:48.004
4,2,32,6,10,6,2,8,2,0,8,3,2,3,2,2020-10-21 18:12:48.012
7,2,36,8,14,2,3,1,6,1,2,4,3,2,2020-10-21 18:12:48.026
7,6,38,4,14,2,8,1,4,0,6,3,3,2,2020-10-21 18:12:48.034
7,2,30,12,6,2,2,1,2,0,8,3,3,2,2020-10-21 18:12:48.041
8,2,23,6,13,6,2,8,1,2,2,2,4,8,3,2,2020-10-21 18:12:48.048
9,2,17,2,14,6,3,4,1,2,3,6,6,6,3,6,2020-10-21 18:12:48.060
7,21,4,15,3,4,1,4,4,7,6,3,2,2020-10-21 18:12:48.066
6,8,22,18,6,3,8,1,6,4,6,9,2,8,2020-10-21 18:12:48.076
6,6,22,6,22,2,4,2,1,8,5,2,10,4,2,6,2020-10-21 18:12:48.083
5,19,4,20,3,8,1,6,4,2,8,8,2,8,2020-10-21 18:12:48.099
5,6,27,4,22,6,3,4,1,6,2,8,6,6,2,4,2020-10-21 18:12:48.106
6,4,30,23,4,3,2,1,8,2,5,2,2,4,2020-10-21 18:12:48.115
6,31,4,19,8,6,2,2,2,2,5,4,2,2020-10-21 18:12:48.126
9,6,37,6,18,6,5,8,3,2,2,4,3,8,5,8,2020-10-21 18:12:48.133
13,2,45,6,20,8,5,4,6,3,3,8,5,6,2020-10-21 18:12:48.151
11,2,36,6,15,2,5,6,4,2,3,4,4,2,6,2020-10-21 18:12:48.159
9,29,4,9,4,7,4,4,4,5,8,7,2020-10-21 18:12:48.170
9,4,30,2,8,6,5,8,3,6,4,4,5,8,5,2,2020-10-21 18:12:48.184
5,8,25,2,5,2,7,4,2,2,3,8,6,6,3,4,2020-10-21 18:12:48.203
2,2,20,2,1,8,9,0,8,3,2,7,4,2,8,2020-10-21 18:12:48.212
2,2,24,2,8,9,1,8,3,7,1,6,2020-10-21 18:12:48.228
2,4,26,4,8,2,2,6,2,2,5,4,1,6,2020-10-21 18:12:48.235
2,6,21,2,4,2,6,6,3,8,2,3,8,2,6,2020-10-21 18:12:48.241
2,8,17,4,4,6,5,6,5,2,4,2,4,3,2020-10-21 18:12:48.248
2,6,22,2,7,6,4,4,5,2,6,2,5,4,2020-10-21 18:12:48.254
6,4,25,4,7,4,6,6,6,5,6,2,7,8,2020-10-21 18:12:48.261
10,2,28,6,6,4,4,8,8,2,7,4,10,4,7,2,2020-10-21 18:12:48.268
10,4,32,4,8,5,2,6,8,7,4,11,8,6,8,2020-10-21 18:12:48.275
10,6,34,4,12,4,5,6,5,6,7,4,12,2,7,2020-10-21 18:12:48.281
11,2,27,8,14,2,6,2,5,6,7,6,11,6,5,4,2020-10-21 18:12:48.290
7,6,19,8,18,2,5,6,3,2,5,8,7,8,3,8,2020-10-21 18:12:48.301
3,4,15,4,17,8,5,4,1,2,3,4,3,8,4,2020-10-21 18:12:48.309
2,8,17,2,16,2,5,8,1,8,2,8,2,6,3,4,2020-10-21 18:12:48.315
2,19,16,4,5,6,1,8,3,2,2,2,6,2020-10-21 18:12:48.321
1,6,22,6,11,8,6,4,1,8,3,2,2,2,4,2020-10-21 18:12:48.329
3,24,2,7,5,8,1,8,3,2,3,5,4,2020-10-21 18:12:48.336
5,22,2,6,6,4,8,1,4,3,8,4,5,2,2020-10-21 18:12:48.350
5,8,19,6,2,4,8,1,4,4,3,8,6,6,2020-10-21 18:12:48.358
10,4,26,2,6,8,5,2,1,8,3,8,4,8,2,2020-10-21 18:12:48.364
14,6,31,6,12,2,4,6,2,2,3,6,3,8,6,8,2020-10-21 18:12:48.371
13,4,30,8,14,6,4,4,2,4,3,2,8,5,4,2020-10-21 18:12:48.377
12,2,30,17,4,2,2,6,2,4,1,8,6,2,2020-10-21 18:12:48.382
11,2,34,2,17,2,3,2,2,2,2,1,8,6,2020-10-21 18:12:48.389
6,6,29,8,11,8,2,4,1,8,1,2,1,6,5,4,2020-10-21 18:12:48.397
3,4,23,6,2,1,8,1,8,0,4,1,8,7,2,2020-10-21 18:12:48.403
4,2,22,8,3,8,1,8,1,6,1,2,4,9,2020-10-21 18:12:48.410
5,22,6,1,4,1,8,1,4,2,6,2,10,2,2020-10-21 18:12:48.416
6,8,18,6,1,2,1,6,1,4,3,8,6,11,4,2020-10-21 18:12:48.423
9,16,2,1,8,1,4,1,8,3,13,13,2020-10-21 18:12:48.432
9,8,16,2,2,6,1,1,8,3,17,10,6,2020-10-21 18:12:48.438
9,28,6,13,8,1,2,2,4,4,19,8,4,2020-10-21 18:12:48.447
9,2,39,17,8,6,4,3,8,4,4,16,6,6,2,2020-10-21 18:12:48.456
9,4,49,4,21,8,11,6,5,2,4,8,14,2,5,4,2020-10-21 18:12:48.462
10,4,50,25,6,13,5,2,5,8,10,6,3,2,2020-10-21 18:12:48.469
9,6,56,4,27,2,13,6,4,6,6,8,7,4,3,4,2020-10-21 18:12:48.476
10,52,18,4,14,3,8,5,8,4,2,3,4,2020-10-21 18:12:48.482
9,4,49,6,16,8,9,4,2,2,5,4,5,4,4,4,2020-10-21 18:12:48.489
9,42,6,15,4,5,8,2,5,4,7,4,2020-10-21 18:12:48.496
7,4,43,8,13,4,6,2,8,5,8,7,8,4,4,2020-10-21 18:12:48.512
6,6,35,6,12,2,6,2,4,2,6,8,7,5,8,2020-10-21 18:12:48.518
7,8,31,8,9,8,8,8,4,4,5,8,6,7,2,2020-10-21 18:12:48.525
9,28,7,4,11,4,4,6,4,8,5,7,2,2020-10-21 18:12:48.532
8,2,33,2,5,2,11,4,3,8,5,6,5,2,6,2,2020-10-21 18:12:48.538
6,6,30,4,6,6,9,6,2,8,5,6,6,6,2,2020-10-21 18:12:48.545
8,8,39,8,11,4,8,8,2,2,3,8,6,5,8,2020-10-21 18:12:48.551
6,4,35,2,12,8,6,4,2,6,3,8,7,2,7,2020-10-21 18:12:48.558
7,6,37,18,8,3,4,4,2,6,2,10,8,8,6,2020-10-21 18:12:48.564
10,6,34,4,24,4,2,5,4,6,4,12,8,8,8,2020-10-21 18:12:48.570
12,4,39,27,4,3,6,5,6,5,4,10,8,8,6,2020-10-21 18:12:48.578
11,4,35,28,4,5,5,4,5,6,10,8,8,6,2020-10-21 18:12:48.584
13,4,41,4,33,4,6,2,6,6,8,11,5,8,2020-10-21 18:12:48.591
10,4,33,2,30,6,7,5,6,6,8,9,2,3,2,2020-10-21 18:12:48.597
7,6,26,4,26,2,7,6,4,5,7,3,2020-10-21 18:12:48.608
6,8,20,4,20,8,7,3,6,5,2,8,2,3,2020-10-21 18:12:48.614
6,2,13,4,17,2,6,4,3,2,5,8,7,6,2,2,2020-10-21 18:12:48.622
5,2,5,6,14,2,5,2,1,6,4,4,5,8,3,2020-10-21 18:12:48.628
5,7,4,11,6,4,2,1,3,6,5,4,2,8,2020-10-21 18:12:48.635
5,2,11,8,11,2,5,1,8,3,6,5,2,6,2020-10-21 18:12:48.640
5,4,16,2,10,8,5,8,2,6,3,6,4,6,2,2,2020-10-21 18:12:48.652
5,4,21,6,8,6,6,6,3,4,3,2,6,1,8,2020-10-21 18:12:48.658
5,6,30,4,10,4,6,2,3,4,4,8,1,2,2020-10-21 18:12:48.663
5,6,30,8,12,8,4,4,4,3,6,8,4,1,4,2020-10-21 18:12:48.670
5,27,2,13,9,4,6,3,9,2,2,2,2020-10-21 18:12:48.676
4,4,24,12,8,7,6,3,6,3,4,9,8,5,2020-10-21 18:12:48.681
5,4,18,6,14,8,8,2,4,2,5,2,14,8,7,8,2020-10-21 18:12:48.687
6,2,9,8,12,8,10,5,6,5,8,19,2,8,2,2020-10-21 18:12:48.694
5,8,10,8,11,6,7,8,4,4,7,4,19,8,6,2020-10-21 18:12:48.700
5,4,11,8,10,4,5,6,3,2,9,18,8,9,2020-10-21 18:12:48.710
6,8,13,2,10,2,5,2,3,2,8,4,17,2,8,2,2020-10-21 18:12:48.716
6,4,14,2,10,4,4,6,2,6,13,7,4,2020-10-21 18:12:48.722
6,15,2,10,6,4,0,8,3,6,8,8,8,8,2020-10-21 18:12:48.729
7,6,13,4,13,5,6,1,2,2,9,8,2,2020-10-21 18:12:48.735
8,13,17,2,5,4,1,4,0,6,7,6,7,4,2020-10-21 18:12:48.741
6,4,11,8,17,6,1,4,0,6,7,6,5,4,2020-10-21 18:12:48.748
5,2,11,2,18,6,4,8,1,4,1,6,5,6,3,4,2020-10-21 18:12:48.754
4,10,6,20,2,3,6,1,4,2,6,3,6,2,2,2020-10-21 18:12:48.759
2,6,11,20,3,2,4,4,6,6,2,4,2020-10-21 18:12:48.765
2,6,13,15,3,4,2,5,8,4,2,2,2020-10-21 18:12:48.771
2,8,15,14,6,3,2,2,2,5,4,10,4,2,4,2020-10-21 18:12:48.777
2,8,19,9,8,3,2,5,2,12,6,3,2020-10-21 18:12:48.783
3,22,5,8,3,2,1,8,6,4,13,8,2,8,2020-10-21 18:12:48.789
3,4,24,3,6,2,8,1,6,8,10,3,2,2020-10-21 18:12:48.795
4,6,20,8,2,3,4,0,8,6,2,7,8,3,4,2020-10-21 18:12:48.801
4,4,15,6,9,3,8,1,5,4,6,4,3,6,2020-10-21 18:12:48.808
4,2,11,2,9,8,4,2,1,2,4,6,5,5,2020-10-21 18:12:48.814
4,8,8,6,12,4,6,2,2,4,3,8,4,4,4,4,2020-10-21 18:12:48.819
4,4,6,8,12,6,5,8,2,4,2,6,3,6,3,8,2020-10-21 18:12:48.825
3,8,9,5,2,2,6,3,4,4,7,2,2020-10-21 18:12:48.832
6,4,14,8,11,2,6,2,2,8,5,7,8,10,6,2020-10-21 18:12:48.837
9,8,21,6,13,4,7,2,3,6,6,11,6,12,4,2020-10-21 18:12:48.844
12,2,27,6,13,6,2,2,2,6,8,15,6,14,4,2020-10-21 18:12:48.850
14,2,25,4,14,2,6,4,2,6,7,17,15,2,2020-10-21 18:12:48.856
16,30,6,15,8,6,6,2,8,6,4,17,2,12,2,2020-10-21 18:12:48.862
14,4,30,6,15,4,5,4,2,6,5,2,13,2,9,4,2020-10-21 18:12:48.868
13,2,33,6,13,2,3,6,2,4,4,6,11,5,6,2020-10-21 18:12:48.874
10,4,27,6,10,2,8,2,3,4,7,2,3,6,2020-10-21 18:12:48.880
9,29,7,6,3,2,1,6,2,6,6,2,2,8,2020-10-21 18:12:48.886
7,8,23,4,8,3,6,1,4,2,6,6,4,2,2020-10-21 18:12:48.893
6,15,6,5,8,6,2,2,3,2,6,6,2,2020-10-21 18:12:48.899
4,4,6,6,14,2,8,2,6,3,8,5,6,2,6,2020-10-21 18:12:48.905
5,4,21,4,20,6,7,8,3,4,6,5,2,3,2,2020-10-21 18:12:48.915
6,4,36,2,27,7,6,3,4,5,4,4,8,4,6,2020-10-21 18:12:48.927
9,6,54,33,6,7,8,3,6,5,8,5,6,2020-10-21 18:12:48.933
10,2,55,4,34,8,6,4,4,4,8,4,4,5,2,2020-10-21 18:12:48.939
10,6,60,4,27,6,6,4,3,2,2,8,5,2020-10-21 18:12:48.945
10,2,44,8,23,2,7,6,4,6,2,6,2,6,4,8,2020-10-21 18:12:48.951
9,8,29,2,19,4,8,6,5,2,2,2,4,3,8,2020-10-21 18:12:48.957
7,2,13,2,15,6,8,2,5,1,6,1,8,2,2,2020-10-21 18:12:48.963
7,14,2,12,7,2,5,3,6,3,1,8,2020-10-21 18:12:48.969
6,4,10,2,11,8,6,5,4,5,6,4,6,3,4,2020-10-21 18:12:48.976
9,24,8,14,4,5,4,4,6,4,2,5,2020-10-21 18:12:48.982
9,8,28,6,21,6,4,2,6,4,4,8,6,6,2020-10-21 18:12:48.988
10,6,29,8,27,4,8,5,7,5,2,8,2020-10-21 18:12:48.995
10,33,4,26,2,9,2,4,2,6,8,6,4,9,4,2020-10-21 18:12:49.000
9,4,37,25,10,4,3,4,6,6,7,6,8,2020-10-21 18:12:49.006
6,2,24,19,8,9,8,3,6,6,4,8,6,6,6,2020-10-21 18:12:49.013
4,8,21,8,10,6,7,2,3,6,2,8,6,8,2020-10-21 18:12:49.019
10,34,8,16,6,8,3,2,7,2,10,2,10,2,2020-10-21 18:12:49.025
17,4,46,2,30,4,7,2,3,8,7,4,10,10,6,2020-10-21 18:12:49.031
18,42,30,8,5,4,3,4,6,2,8,6,11,2020-10-21 18:12:49.037
19,2,42,8,33,4,7,4,6,2,7,8,11,4,2020-10-21 18:12:49.043
20,4,43,6,36,8,6,4,6,6,2,7,8,4,2020-10-21 18:12:49.050
12,8,32,22,8,7,6,4,2,4,6,5,6,2,2020-10-21 18:12:49.055
6,4,18,6,10,8,8,4,3,2,3,4,2,4,5,8,2020-10-21 18:12:49.061
6,8,20,8,12,8,11,4,3,2,3,6,1,6,6,2020-10-21 18:12:49.067
8,4,22,8,15,8,12,8,3,8,4,6,3,4,6,2,2020-10-21 18:12:49.073
8,28,8,19,4,11,4,3,4,5,6,4,8,6,4,2020-10-21 18:12:49.080
9,8,32,24,2,10,4,3,2,7,5,8,5,2020-10-21 18:12:49.086
9,28,23,2,7,8,3,7,7,4,2020-10-21 18:12:49.092
9,8,31,4,23,6,7,6,3,6,6,8,8,4,2,4,2020-10-21 18:12:49.099
8,33,8,21,7,4,2,8,5,6,7,2,2,6,2020-10-21 18:12:49.105
7,4,27,2,15,7,2,3,2,4,2,6,2,8,2020-10-21 18:12:49.112
6,8,20,6,9,7,3,6,2,8,4,8,3,2020-10-21 18:12:49.123
8,4,31,8,13,6,7,2,3,6,2,4,3,6,3,2,2020-10-21 18:12:49.129
9,2,41,2,17,4,4,8,3,6,3,2,2,8,4,6,2020-10-21 18:12:49.135
8,8,35,2,17,3,6,3,6,3,6,3,8,5,4,2020-10-21 18:12:49.140
9,2,34,2,19,4,5,2,3,4,4,2,5,8,4,8,2020-10-21 18:12:49.146
9,2,43,8,20,8,5,2,2,6,4,6,6,4,6,2020-10-21 18:12:49.152
7,8,32,4,17,4,8,6,2,6,3,6,7,8,4,2020-10-21 18:12:49.159
5,6,15,4,13,4,12,2,1,8,2,2,8,4,2,4,2020-10-21 18:12:49.165
4,6,15,4,12,6,12,6,1,2,1,2,6,8,0,8,2020-10-21 18:12:49.172
3,6,15,4,11,8,13,0,6,0,2,5,2,0,6,2020-10-21 18:12:49.178
3,4,8,12,15,0,6,0,4,8,0,8,2020-10-21 18:12:49.183
3,2,7,14,12,8,1,4,0,4,3,8,1,6,2020-10-21 18:12:49.190
4,8,2,11,2,9,2,1,4,2,2,5,2,2,2,2020-10-21 18:12:49.196
4,8,7,8,9,4,7,6,1,2,4,7,2,2,2020-10-21 18:12:49.208
4,4,8,8,12,8,6,4,1,4,4,4,6,4,2,8,2020-10-21 18:12:49.214
4,6,7,8,12,2,4,6,1,2,5,2,9,3,4,2020-10-21 18:12:49.220
4,6,6,2,8,6,3,0,4,5,6,12,2,3,2,2020-10-21 18:12:49.226
3,6,8,2,8,4,3,1,4,10,4,3,2020-10-21 18:12:49.232
2,6,10,2,8,2,3,1,6,2,4,8,6,4,2,2020-10-21 18:12:49.238
4,8,15,2,4,8,2,6,2,6,2,10,2,3,4,2020-10-21 18:12:49.244
4,2,15,2,3,8,3,4,2,8,2,9,2,6,2020-10-21 18:12:49.250
3,6,15,2,2,8,4,2,3,2,7,8,2,6,2020-10-21 18:12:49.257
5,2,22,2,3,6,5,6,3,3,8,4,3,6,2020-10-21 18:12:49.262
6,21,6,6,4,5,3,6,5,4,10,4,3,8,2020-10-21 18:12:49.269
4,8,16,6,7,2,4,4,3,4,8,11,4,3,8,2020-10-21 18:12:49.275
6,4,24,8,7,6,6,6,3,6,7,8,10,6,3,8,2020-10-21 18:12:49.281
8,33,8,8,8,3,8,7,6,9,8,3,2,2020-10-21 18:12:49.287
6,4,23,8,11,7,4,3,4,6,6,8,4,2,2020-10-21 18:12:49.294
5,8,27,10,2,8,3,5,6,6,0,8,2020-10-21 18:12:49.300
5,2,30,2,9,4,8,6,2,6,4,6,3,6,1,2020-10-21 18:12:49.305
4,23,4,9,2,6,4,2,4,4,4,2,8,1,4,2020-10-21 18:12:49.312
2,8,18,8,4,3,4,3,4,6,2,1,8,2020-10-21 18:12:49.318
3,20,4,4,6,3,2,3,8,5,2,2,6,2,2020-10-21 18:12:49.327
3,2,21,2,6,3,2,4,2,6,2,4,2,2,2,2020-10-21 18:12:49.333
3,4,21,6,0,6,3,2,4,6,7,2,5,8,2,8,2020-10-21 18:12:49.339
2,8,25,3,3,5,2,7,2,5,6,3,2020-10-21 18:12:49.345
4,2,22,6,6,2,3,4,4,8,6,8,5,4,3,2,2020-10-21 18:12:49.351
5,6,20,2,9,4,3,8,4,4,6,4,5,2,3,2,2020-10-21 18:12:49.358
5,14,9,8,3,4,3,6,4,4,2,4,2,2020-10-21 18:12:49.364
5,6,11,12,2,4,2,3,2,3,4,8,5,2020-10-21 18:12:49.370
7,9,11,6,4,6,3,2,4,2,7,6,2020-10-21 18:12:49.377
6,4,11,4,10,8,5,2,3,4,5,4,9,2,5,6,2020-10-21 18:12:49.383
4,6,11,10,4,8,2,8,5,6,10,8,5,2,2020-10-21 18:12:49.389
4,6,11,4,12,5,2,4,6,11,8,4,2020-10-21 18:12:49.395
4,8,16,2,11,2,3,8,1,6,4,6,9,8,4,2020-10-21 18:12:49.401
5,6,14,6,10,2,2,8,1,4,4,8,4,4,2020-10-21 18:12:49.406
6,4,13,9,2,1,8,1,2,3,4,7,5,4,2020-10-21 18:12:49.412
8,4,14,2,8,2,1,8,1,8,3,8,6,2,5,6,2020-10-21 18:12:49.419
9,17,4,7,8,1,6,2,4,4,4,2,7,2020-10-21 18:12:49.426
7,8,10,6,6,2,1,4,2,6,4,2,4,7,2,2020-10-21 18:12:49.433
6,10,2,4,8,1,2,2,3,6,3,2,7,4,2020-10-21 18:12:49.439
4,2,9,8,3,4,0,6,1,8,3,2,4,7,2020-10-21 18:12:49.445
3,12,4,4,4,2,2,8,3,4,3,2,7,8,2020-10-21 18:12:49.451
3,2,13,4,8,3,6,3,8,4,5,2,8,6,2020-10-21 18:12:49.457
6,15,5,4,3,8,4,3,8,4,8,7,2,2020-10-21 18:12:49.463
6,14,8,5,6,4,3,8,3,6,4,6,8,2020-10-21 18:12:49.469
8,8,19,8,9,4,4,6,4,4,2,5,4,8,6,2020-10-21 18:12:49.475
8,2,21,6,8,3,4,3,4,4,8,9,2,2020-10-21 18:12:49.481
7,6,23,4,6,6,2,2,2,3,8,4,2,8,4,2020-10-21 18:12:49.493
4,8,26,2,7,2,6,2,2,4,8,5,6,9,6,2020-10-21 18:12:49.500
6,2,25,2,8,2,3,2,2,6,4,8,6,4,8,6,2020-10-21 18:12:49.508
4,8,19,5,8,3,4,2,6,4,6,2,7,2020-10-21 18:12:49.514
5,2,20,8,8,4,3,4,2,2,4,2,5,5,6,2020-10-21 18:12:49.520
6,20,2,12,2,3,8,2,6,3,2,4,8,4,2,2020-10-21 18:12:49.531
6,8,19,6,16,4,2,3,2,2,4,6,3,2,2020-10-21 18:12:49.537
6,20,18,4,4,3,2,2,4,2,2,2,2020-10-21 18:12:49.543
5,2,20,4,20,4,6,3,2,2,3,8,3,4,2020-10-21 18:12:49.549
4,6,16,20,2,5,4,3,2,2,2,5,4,4,2020-10-21 18:12:49.555
3,6,14,19,2,5,8,2,6,3,4,5,2,5,2020-10-21 18:12:49.562
2,4,10,2,17,6,2,2,4,6,7,5,4,2020-10-21 18:12:49.568
1,4,11,4,16,2,6,2,2,4,5,8,9,4,6,2020-10-21 18:12:49.574
2,8,17,4,16,2,7,6,2,6,7,4,10,8,5,2020-10-21 18:12:49.581
3,14,4,14,4,6,4,3,6,2,12,2,4,2020-10-21 18:12:49.586
3,2,11,4,12,6,5,2,3,4,5,13,6,3,4,2020-10-21 18:12:49.593
4,9,8,11,2,6,4,3,4,4,4,10,8,5,2020-10-21 18:12:49.599
7,11,13,2,6,8,3,8,4,4,9,8,6,4,2020-10-21 18:12:49.604
7,6,7,4,14,4,6,4,2,4,9,8,8,6,2020-10-21 18:12:49.611
10,2,9,8,17,7,4,4,4,5,2,9,12,8,2020-10-21 18:12:49.617
14,2,11,6,15,6,7,8,3,8,7,4,13,15,4,2020-10-21 18:12:49.623
16,2,18,15,8,6,8,3,4,6,8,14,2,15,8,2020-10-21 18:12:49.629
16,21,6,12,6,6,6,2,6,5,6,13,6,13,4,2020-10-21 18:12:49.635
16,8,23,6,9,8,5,4,1,6,5,2,12,4,10,8,2020-10-21 18:12:49.641
14,2,21,7,6,4,8,1,5,11,6,2,2020-10-21 18:12:49.648
10,2,19,9,4,5,2,1,2,3,8,4,8,3,4,2020-10-21 18:12:49.653
8,15,6,14,4,4,8,1,2,3,8,3,8,0,6,2020-10-21 18:12:49.660
5,8,12,2,19,4,4,4,1,2,3,8,2,8,0,6,2020-10-21 18:12:49.666
4,4,8,2,20,4,6,8,1,8,3,8,5,6,1,2,2020-10-21 18:12:49.672
4,4,15,6,18,6,6,4,2,2,2,8,5,6,1,8,2020-10-21 18:12:49.678
4,4,23,16,8,6,2,6,1,8,5,6,2,2,2020-10-21 18:12:49.684
5,24,6,10,8,6,2,8,2,8,5,2,2,6,2020-10-21 18:12:49.690
5,6,26,2,4,8,6,3,3,8,4,8,4,6,2020-10-21 18:12:49.697
7,34,6,12,4,8,3,3,2,1,4,6,2,2020-10-21 18:12:49.703
10,4,36,2,21,4,5,8,2,8,3,4,1,6,4,2020-10-21 18:12:49.710
11,6,33,22,8,5,4,2,4,6,1,4,9,2,2020-10-21 18:12:49.715
13,4,29,28,7,2,2,4,4,6,3,6,11,2,2020-10-21 18:12:49.721
16,6,26,30,6,6,4,2,6,3,6,4,6,9,2,2020-10-21 18:12:49.731
13,4,17,8,24,6,6,2,3,6,6,2,7,2,2020-10-21 18:12:49.737
10,2,9,6,17,4,6,8,1,4,3,6,7,8,7,2020-10-21 18:12:49.743
9,4,8,4,17,2,8,1,8,2,8,8,8,5,4,2020-10-21 18:12:49.750
7,6,8,12,2,6,8,2,8,2,6,8,4,6,2020-10-21 18:12:49.755
4,4,6,6,9,8,8,2,4,2,2,6,5,8,2020-10-21 18:12:49.762
4,8,9,4,8,2,7,4,4,2,2,2,5,6,7,2020-10-21 18:12:49.768
5,2,12,2,6,6,6,6,4,4,2,2,5,2,7,8,2020-10-21 18:12:49.774
6,10,8,5,2,5,6,4,1,8,4,4,6,6,2020-10-21 18:12:49.786
6,12,2,6,2,4,2,2,1,6,4,6,5,4,2020-10-21 18:12:49.793
4,8,16,4,11,6,4,8,0,6,1,6,5,8,4,6,2020-10-21 18:12:49.799
3,8,17,15,8,6,2,0,6,1,6,5,8,3,8,2020-10-21 18:12:49.804
2,8,17,6,20,7,6,0,6,1,6,5,8,3,2020-10-21 18:12:49.810
1,4,18,6,24,8,8,0,8,1,6,5,2,4,2020-10-21 18:12:49.816
1,6,18,2,32,2,8,8,1,2,2,4,6,1,8,2020-10-21 18:12:49.822
3,15,35,2,7,2,1,4,2,2,3,2,2,2,2020-10-21 18:12:49.828
3,8,15,2,39,2,5,4,2,2,3,2,3,6,2,6,2020-10-21 18:12:49.834
4,6,15,4,43,2,3,6,3,4,2,4,2,6,2020-10-21 18:12:49.840
5,4,12,6,41,6,4,2,3,4,4,8,3,8,3,4,2020-10-21 18:12:49.846
5,2,11,6,42,4,8,3,6,4,8,4,8,4,2,2020-10-21 18:12:49.852
5,10,6,43,2,11,8,3,8,4,8,5,8,3,6,2020-10-21 18:12:49.859
6,4,6,35,12,2,3,2,3,6,4,6,3,2020-10-21 18:12:49.865
7,8,1,4,26,8,12,6,2,6,2,4,3,4,2,6,2020-10-21 18:12:49.871
7,2,3,8,24,11,6,2,2,1,6,4,2,2020-10-21 18:12:49.877
6,4,6,15,7,4,1,8,1,3,8,2,2,2020-10-21 18:12:49.883
6,7,2,6,8,4,6,1,6,1,4,3,6,1,8,2020-10-21 18:12:49.889
3,8,9,8,6,5,6,2,2,1,8,3,8,1,4,2020-10-21 18:12:49.895
1,6,10,8,10,4,6,6,2,8,2,2,4,1,2,2020-10-21 18:12:49.901
1,2,10,2,13,2,8,2,3,6,2,8,4,1,2020-10-21 18:12:49.906
0,8,9,6,16,9,8,4,4,3,4,4,0,6,2020-10-21 18:12:49.913
0,2,8,6,15,2,9,4,4,4,2,6,3,6,2,6,2020-10-21 18:12:49.919
1,2,8,4,14,4,8,4,3,6,3,5,3,2020-10-21 18:12:49.925
1,4,7,8,12,6,4,3,3,4,8,3,4,2020-10-21 18:12:49.935
1,6,7,2,9,6,4,4,2,4,3,4,6,3,8,2020-10-21 18:12:49.941
1,8,6,6,7,2,2,4,1,8,3,4,4,5,6,2020-10-21 18:12:49.947
3,8,8,8,7,8,1,2,2,4,4,7,2,3,8,2020-10-21 18:12:49.953
4,8,17,6,8,2,0,2,2,3,8,6,3,6,2020-10-21 18:12:49.959
6,6,26,8,10,2,0,2,1,8,3,6,6,4,3,8,2020-10-21 18:12:49.965
7,8,28,6,11,8,0,8,1,6,3,2,6,2,4,2020-10-21 18:12:49.971
8,29,2,12,4,2,2,1,4,3,4,6,4,2,2,2020-10-21 18:12:49.979
6,2,28,4,12,8,3,4,1,2,6,4,2,8,2020-10-21 18:12:49.985
5,18,13,4,4,2,1,2,4,3,2,2,6,2020-10-21 18:12:49.991
4,6,11,8,12,2,5,8,1,2,2,2,4,2,2020-10-21 18:12:49.997
4,8,13,11,4,6,8,1,4,1,8,2,2,1,8,2020-10-21 18:12:50.003
4,4,11,8,10,2,6,2,1,2,1,4,1,8,1,6,2020-10-21 18:12:50.010
4,10,6,9,5,6,1,1,1,4,1,2,2020-10-21 18:12:50.016
5,2,18,6,2,6,2,1,6,0,8,1,8,2,2020-10-21 18:12:50.022
4,4,22,4,6,6,7,1,8,4,6,5,4,2,8,2020-10-21 18:12:50.029
3,6,26,8,7,7,8,2,8,4,9,4,4,2020-10-21 18:12:50.035
4,8,30,4,10,6,8,2,2,4,10,6,12,4,4,8,2020-10-21 18:12:50.041
5,6,31,10,6,8,2,3,11,4,13,2,5,2,2020-10-21 18:12:50.047
4,4,24,8,10,2,7,6,2,8,12,6,13,8,5,2,2020-10-21 18:12:50.053
4,4,17,4,8,4,6,2,8,10,11,2,4,6,2020-10-21 18:12:50.059
4,11,9,2,4,3,6,4,8,3,2020-10-21 18:12:50.065
2,8,10,4,8,3,3,4,4,4,8,2,6,2020-10-21 18:12:50.077
2,12,8,10,4,2,4,2,8,3,8,4,2,2,2,2020-10-21 18:12:50.083
1,2,15,2,12,8,1,8,2,6,3,2,3,6,1,6,2020-10-21 18:12:50.090
0,6,16,8,16,1,4,2,2,3,2,3,6,1,6,2020-10-21 18:12:50.096
0,4,17,4,16,6,1,4,1,6,4,2,4,2,1,2,2020-10-21 18:12:50.101
1,6,19,6,19,2,2,1,6,5,2,4,4,1,8,2020-10-21 18:12:50.107
3,16,18,2,2,4,1,6,5,6,3,8,2,4,2020-10-21 18:12:50.113
4,4,12,4,17,4,2,6,1,6,6,3,2,3,2,2020-10-21 18:12:50.119
5,6,9,6,15,8,2,6,1,8,5,8,2,5,6,2020-10-21 18:12:50.126
7,2,7,4,14,2,4,4,2,6,4,3,2,6,2,2020-10-21 18:12:50.136
7,12,8,13,4,3,4,1,8,5,2,3,6,5,8,2020-10-21 18:12:50.143
6,6,24,15,8,3,1,6,4,6,4,8,5,2020-10-21 18:12:50.148
5,8,24,15,6,3,8,1,4,3,8,5,4,4,2,2020-10-21 18:12:50.154
5,24,15,4,4,6,1,2,3,6,2,4,2020-10-21 18:12:50.160
3,6,24,2,13,4,2,8,1,2,2,8,5,8,2,2020-10-21 18:12:50.166
3,6,13,10,2,3,8,1,4,3,2,5,8,2,2,2020-10-21 18:12:50.173
3,8,7,4,9,6,6,2,6,3,8,5,6,2,8,2020-10-21 18:12:50.181
4,4,13,11,6,7,3,8,4,6,6,7,6,2020-10-21 18:12:50.186
7,4,13,8,10,6,8,4,5,6,11,2,11,8,2020-10-21 18:12:50.193
10,4,15,12,8,8,8,5,6,6,11,4,16,6,2020-10-21 18:12:50.199
12,8,17,14,4,10,2,7,2,7,2,12,6,20,8,2020-10-21 18:12:50.204
15,13,4,13,4,10,4,7,8,8,2,14,22,6,2020-10-21 18:12:50.211
16,2,17,6,14,2,11,8,6,6,9,4,21,2,20,2,2020-10-21 18:12:50.218
15,26,6,18,6,14,4,6,4,10,4,23,6,18,4,2020-10-21 18:12:50.223
14,2,34,2,18,8,12,6,5,9,23,6,15,8,2020-10-21 18:12:50.230
12,2,36,18,4,12,6,3,6,8,4,23,13,2,2020-10-21 18:12:50.237
10,2,37,8,18,12,6,2,2,7,8,22,4,11,2020-10-21 18:12:50.248
10,6,33,4,15,9,6,2,2,5,6,15,6,8,8,2020-10-21 18:12:50.254
8,6,24,8,10,4,6,3,4,2,7,6,6,2020-10-21 18:12:50.260
6,4,16,4,7,4,5,4,3,4,4,4,5,4,4,2020-10-21 18:12:50.267
5,4,13,8,5,3,3,8,3,8,3,8,1,6,2020-10-21 18:12:50.273
5,2,11,3,8,2,6,4,4,3,3,1,2,2020-10-21 18:12:50.281
3,6,6,6,3,4,4,5,4,3,6,2,6,1,2,2020-10-21 18:12:50.287
4,6,12,4,4,6,4,2,5,3,2,3,4,3,2020-10-21 18:12:50.294
6,8,14,8,4,6,7,6,5,2,6,4,4,4,8,2020-10-21 18:12:50.301
9,17,2,4,6,11,5,2,5,4,5,2020-10-21 18:12:50.307
8,17,2,6,9,4,3,8,2,4,5,2,8,4,2020-10-21 18:12:50.314
8,8,23,5,4,9,2,2,8,4,6,10,2,11,4,2020-10-21 18:12:50.320
9,4,22,8,4,8,10,8,2,4,7,15,2,10,2,2020-10-21 18:12:50.327
8,4,26,6,14,4,8,2,9,16,2,9,2020-10-21 18:12:50.338
7,4,30,4,24,5,2,1,6,11,17,2,12,2020-10-21 18:12:50.348
10,8,37,6,30,2,5,6,3,11,2,21,6,10,4,2020-10-21 18:12:50.357
11,2,34,31,4,3,6,8,6,16,8,7,8,2020-10-21 18:12:50.364
10,2,28,2,35,4,2,4,4,2,6,11,8,7,6,2020-10-21 18:12:50.370
9,6,21,8,30,8,2,4,4,4,10,6,8,2020-10-21 18:12:50.379
8,6,20,25,6,2,8,4,2,12,5,8,2020-10-21 18:12:50.393
5,6,18,8,17,8,2,2,3,4,0,8,7,6,4,2,2020-10-21 18:12:50.401
4,6,20,19,2,3,3,4,1,6,7,6,3,6,2020-10-21 18:12:50.407
5,23,4,17,3,8,3,4,2,4,7,8,3,2,2020-10-21 18:12:50.414
5,24,6,12,6,4,2,6,4,6,8,2,2,2,2020-10-21 18:12:50.420
5,4,21,2,8,8,3,2,4,6,8,6,1,4,2020-10-21 18:12:50.426
6,6,20,4,9,2,3,2,2,7,5,6,2,2020-10-21 18:12:50.433
5,2,20,7,3,6,2,2,6,4,4,8,2,6,2020-10-21 18:12:50.439
3,8,19,6,4,8,4,2,4,5,8,4,3,2020-10-21 18:12:50.445
2,8,21,4,4,8,5,3,4,3,8,3,2,6,2020-10-21 18:12:50.450
3,4,22,6,5,2,4,2,6,2,8,2,6,2020-10-21 18:12:50.456
1,8,18,6,6,8,5,3,6,3,4,2,8,2,2020-10-21 18:12:50.462
2,17,4,8,4,3,8,2,6,4,2,8,1,4,2020-10-21 18:12:50.469
3,14,6,8,3,8,2,2,4,2,2,6,0,8,2020-10-21 18:12:50.475
4,11,8,7,6,3,8,1,8,4,4,2,4,2,4,2020-10-21 18:12:50.481
4,11,8,7,3,6,1,4,3,4,2,2,2,2,2020-10-21 18:12:50.487
4,8,9,8,7,2,3,8,1,4,3,2,2,8,2,2020-10-21 18:12:50.494
5,6,7,8,7,4,4,1,4,3,3,4,1,8,2020-10-21 18:12:50.501
5,6,7,4,9,6,3,0,8,3,2,4,2,2,6,2020-10-21 18:12:50.509
5,8,7,4,11,2,4,2,0,4,2,8,4,3,4,2020-10-21 18:12:50.515
5,4,5,2,12,2,4,0,2,4,8,4,8,5,8,2020-10-21 18:12:50.520
5,6,5,12,3,8,0,2,6,2,5,6,6,4,2020-10-21 18:12:50.527
6,2,6,6,12,6,7,2,1,8,7,4,4,8,7,2020-10-21 18:12:50.533
6,8,8,2,13,2,10,6,3,4,8,6,4,6,6,2020-10-21 18:12:50.544
7,2,9,4,14,4,11,8,4,8,10,4,4,2,5,6,2020-10-21 18:12:50.550
8,13,2,16,12,5,2,9,2,4,4,4,2020-10-21 18:12:50.556
7,4,14,15,4,12,8,5,4,7,2,8,4,2,2020-10-21 18:12:50.562
6,4,13,14,10,4,5,2,8,4,4,2020-10-21 18:12:50.568
5,2,14,4,13,2,6,6,3,4,3,4,4,6,2020-10-21 18:12:50.575
4,15,8,12,4,3,2,2,3,4,4,4,2020-10-21 18:12:50.581
2,15,8,14,3,2,1,8,3,3,8,4,8,2020-10-21 18:12:50.586
1,4,18,8,17,8,2,6,1,8,4,5,4,5,4,2020-10-21 18:12:50.593
3,17,8,16,2,2,1,8,5,2,8,2,6,2020-10-21 18:12:50.600
4,8,14,4,14,2,1,4,5,4,10,4,6,8,2020-10-21 18:12:50.605
6,6,15,14,4,2,2,1,6,6,13,4,5,8,2020-10-21 18:12:50.612
7,4,13,10,4,2,1,4,5,2,12,4,8,2020-10-21 18:12:50.618
8,2,11,6,4,1,8,1,2,4,4,10,6,4,2,2020-10-21 18:12:50.624
6,8,11,6,8,2,2,1,6,3,4,7,8,5,4,2020-10-21 18:12:50.631
6,8,10,6,12,4,3,4,2,6,4,2,7,2,6,4,2020-10-21 18:12:50.637
6,8,6,2,15,4,4,4,3,4,6,5,8,6,2,2020-10-21 18:12:50.643
6,4,8,14,2,4,8,4,5,2,6,6,6,2020-10-21 18:12:50.650
5,6,9,2,13,2,6,4,2,5,2,6,6,6,4,2020-10-21 18:12:50.655
5,2,15,6,13,2,6,6,3,8,5,2,7,4,4,2,2020-10-21 18:12:50.661
3,2,19,4,8,5,4,3,2,3,2,5,2,2,4,2020-10-21 18:12:50.669
2,2,22,3,2,5,2,2,2,2,2,3,4,3,2,2020-10-21 18:12:50.675
3,4,23,6,3,8,6,1,4,2,4,3,4,4,2,2020-10-21 18:12:50.682
4,2,19,6,5,8,2,6,5,5,5,2020-10-21 18:12:50.688
5,2,14,6,4,8,2,8,6,4,4,6,2020-10-21 18:12:50.701
6,4,12,6,4,8,2,6,7,2,4,6,6,6,2020-10-21 18:12:50.708
6,6,11,2,5,6,3,8,2,8,7,4,4,4,6,2,2020-10-21 18:12:50.714
6,8,10,4,5,8,3,3,2,7,8,6,4,5,6,2020-10-21 18:12:50.720
6,10,10,2,4,8,3,6,5,5,6,2020-10-21 18:12:50.727
5,8,18,15,8,8,4,3,4,5,8,6,2,4,6,2020-10-21 18:12:50.733
6,18,6,18,2,9,4,3,4,8,6,6,3,6,2020-10-21 18:12:50.744
6,2,19,2,20,6,10,4,2,6,3,8,7,3,8,2020-10-21 18:12:50.750
5,2,21,6,22,11,6,2,4,2,4,4,8,3,4,2020-10-21 18:12:50.757
5,2,24,17,4,10,4,1,6,1,4,4,2,2,2020-10-21 18:12:50.764
5,16,14,8,7,1,4,0,6,3,2,2020-10-21 18:12:50.770
4,4,15,4,15,4,6,2,2,0,6,2,8,1,8,2020-10-21 18:12:50.777
3,4,15,6,14,2,5,2,0,4,3,1,2,2020-10-21 18:12:50.783
3,4,11,2,16,6,3,4,1,8,1,2,8,1,6,2020-10-21 18:12:50.790
5,4,11,8,23,2,4,1,6,1,3,4,2,4,2020-10-21 18:12:50.797
6,8,14,8,28,4,2,6,1,2,0,8,3,8,4,2020-10-21 18:12:50.804
7,8,14,8,25,8,2,4,1,4,2,6,5,8,5,6,2020-10-21 18:12:50.811
9,2,14,25,2,6,2,2,4,6,7,4,6,4,2020-10-21 18:12:50.817
9,24,30,8,4,8,2,2,4,2,8,6,2,2020-10-21 18:12:50.824
6,8,29,32,6,6,4,2,2,4,4,7,8,6,6,2020-10-21 18:12:50.831
6,2,28,40,2,8,6,3,2,6,8,6,6,2,2020-10-21 18:12:50.837
6,30,55,8,11,2,3,6,5,6,7,8,7,2020-10-21 18:12:50.844
4,2,37,4,57,8,14,2,3,6,5,6,8,6,6,2,2020-10-21 18:12:50.850
4,27,4,48,2,12,8,3,4,5,8,7,8,5,4,2020-10-21 18:12:50.856
3,8,17,4,38,6,11,4,3,2,6,7,4,2020-10-21 18:12:50.863
2,13,4,23,2,9,4,2,4,8,5,2,5,2020-10-21 18:12:50.869
1,6,19,7,8,8,2,6,6,10,4,8,2020-10-21 18:12:50.876
2,8,19,2,4,4,7,8,3,6,6,8,13,2,6,4,2020-10-21 18:12:50.882
4,8,26,2,5,4,7,4,3,8,6,6,13,6,6,6,2020-10-21 18:12:50.888
6,2,28,2,8,6,8,4,6,8,14,8,6,8,2020-10-21 18:12:50.896
7,6,30,2,11,8,8,6,4,2,7,16,8,4,2020-10-21 18:12:50.902
9,4,24,8,13,6,7,8,3,6,6,15,4,7,2,2020-10-21 18:12:50.908
10,16,6,16,2,7,4,1,6,4,9,4,6,8,2020-10-21 18:12:50.915
10,11,17,8,8,1,8,4,9,6,7,2020-10-21 18:12:50.922
10,2,12,13,8,8,2,2,3,8,9,7,2,2020-10-21 18:12:50.928
10,4,13,10,6,7,2,2,6,3,6,8,4,4,8,2020-10-21 18:12:50.936
8,8,11,8,10,4,7,2,6,2,3,6,5,2020-10-21 18:12:50.947
8,4,15,4,11,6,6,2,2,2,4,3,5,2,2020-10-21 18:12:50.953
8,19,11,6,6,2,1,8,2,8,2,4,6,2,2020-10-21 18:12:50.960
8,21,14,7,1,2,3,1,8,6,4,2020-10-21 18:12:50.965
6,8,19,4,13,4,6,2,0,8,3,8,5,6,4,8,2020-10-21 18:12:50.972
5,6,26,2,14,2,6,6,0,8,4,4,6,3,4,2020-10-21 18:12:50.979
4,4,31,13,4,6,8,1,4,4,4,4,8,2,2020-10-21 18:12:50.985
3,2,35,8,12,6,7,2,4,8,5,1,6,2020-10-21 18:12:50.993
1,6,38,4,13,7,2,2,6,6,7,2,2,2020-10-21 18:12:50.999
1,2,44,6,16,4,9,3,6,6,5,2,4,2020-10-21 18:12:51.004
1,4,35,8,14,2,8,6,3,7,2,5,4,2,6,2020-10-21 18:12:51.011
2,27,2,13,8,7,2,3,6,7,5,4,2,8,2020-10-21 18:12:51.017
2,6,18,6,13,4,5,8,4,2,6,8,5,4,3,2020-10-21 18:12:51.029
3,17,8,11,6,4,2,4,5,8,4,4,3,6,2020-10-21 18:12:51.035
4,4,19,8,9,2,6,3,6,4,2,3,8,4,8,2020-10-21 18:12:51.041
5,2,28,4,9,8,1,4,3,2,2,8,4,8,5,4,2020-10-21 18:12:51.048
5,4,29,6,9,2,6,4,3,2,2,4,5,2,6,2020-10-21 18:12:51.053
5,6,30,8,8,6,11,4,3,2,2,5,6,5,6,2020-10-21 18:12:51.059
8,28,6,8,14,2,4,6,1,6,4,8,4,4,2020-10-21 18:12:51.065
6,6,21,4,11,2,17,2,5,1,4,3,6,3,2,2020-10-21 18:12:51.071
5,2,14,2,14,4,20,2,5,4,1,2,2,4,2,8,2020-10-21 18:12:51.078
4,25,2,14,8,17,5,1,2,2,2,4,2020-10-21 18:12:51.084
3,2,23,8,18,12,4,1,1,6,2,2020-10-21 18:12:51.091
0,8,20,2,21,4,9,4,2,4,0,8,1,4,1,8,2020-10-21 18:12:51.097
1,2,19,23,4,7,6,2,1,2,1,4,1,6,2020-10-21 18:12:51.103
1,6,17,8,25,4,5,8,1,6,1,6,1,4,1,2,2020-10-21 18:12:51.109
2,2,10,2,27,8,5,6,1,2,2,1,4,1,2020-10-21 18:12:51.115
2,6,10,4,23,6,6,2,1,4,2,8,1,2,0,6,2020-10-21 18:12:51.121
2,6,11,2,24,8,6,2,4,3,8,1,2,0,4,2020-10-21 18:12:51.128
2,6,11,8,24,4,4,8,3,4,4,6,1,0,2,2020-10-21 18:12:51.134
2,6,12,4,24,3,6,4,4,5,4,0,8,0,4,2020-10-21 18:12:51.140
2,2,8,6,20,8,2,4,4,2,4,4,1,1,4,2020-10-21 18:12:51.151
2,11,22,2,4,8,4,6,3,6,1,6,2020-10-21 18:12:51.157
2,2,12,6,17,6,1,8,3,8,4,4,6,1,8,2020-10-21 18:12:51.163
2,4,14,2,13,2,1,6,2,8,3,4,5,6,2,2020-10-21 18:12:51.169
5,18,8,8,8,5,1,6,2,2,5,6,2,6,2020-10-21 18:12:51.175
5,4,18,8,9,4,6,2,2,2,8,7,2,2,2020-10-21 18:12:51.181
5,4,17,2,8,6,4,4,1,6,2,4,6,2,2,8,2020-10-21 18:12:51.187
5,4,15,8,8,4,4,8,2,2,4,6,8,2,8,2020-10-21 18:12:51.193
6,6,19,8,9,2,6,4,2,8,2,8,6,2,8,2020-10-21 18:12:51.199
4,2,17,2,8,4,3,3,4,4,2,7,6,2,2,2020-10-21 18:12:51.205
4,2,19,7,8,2,8,3,4,5,7,6,2,2020-10-21 18:12:51.211
4,4,24,8,7,4,4,2,8,7,7,4,1,6,2020-10-21 18:12:51.217
4,6,24,4,8,5,8,2,8,7,6,7,4,1,4,2020-10-21 18:12:51.223
3,2,19,5,4,4,8,2,6,8,2,7,6,1,2,2020-10-21 18:12:51.230
3,17,2,4,4,5,2,2,8,8,4,6,4,1,2020-10-21 18:12:51.235
2,8,15,4,3,4,5,6,3,8,6,5,2,1,4,2020-10-21 18:12:51.241
2,8,8,4,2,4,5,3,6,6,2,4,6,2,2020-10-21 18:12:51.247
2,8,7,6,0,4,3,8,3,6,5,2,3,8,3,4,2020-10-21 18:12:51.253
3,4,7,4,6,6,3,6,3,2,4,7,6,4,8,2020-10-21 18:12:51.260
5,17,4,12,2,4,8,2,8,3,8,8,2,6,2,2020-10-21 18:12:51.266
6,6,27,4,17,8,6,2,4,3,6,8,8,6,2020-10-21 18:12:51.272
7,28,8,21,6,6,2,3,8,10,2,6,6,2020-10-21 18:12:51.279
6,6,29,6,21,8,5,8,2,8,5,4,17,8,6,8,2020-10-21 18:12:51.285
6,29,4,16,6,2,3,8,6,8,22,6,2,2020-10-21 18:12:51.292
5,6,20,14,6,5,3,6,8,2,22,6,5,6,2020-10-21 18:12:51.301
5,2,10,6,13,2,3,8,3,4,9,6,23,2,6,6,2020-10-21 18:12:51.307
8,6,23,12,3,3,4,12,23,8,5,6,2020-10-21 18:12:51.314
8,4,31,11,8,8,3,6,10,8,18,4,4,6,2020-10-21 18:12:51.320
8,2,39,11,6,13,3,8,9,6,13,4,4,2020-10-21 18:12:51.326
8,4,44,4,13,13,8,5,2,7,2,11,8,3,8,2020-10-21 18:12:51.332
7,8,43,10,2,14,4,6,4,5,6,10,8,2,2,2020-10-21 18:12:51.344
4,2,29,6,8,8,15,4,7,6,4,8,6,3,4,2020-10-21 18:12:51.355
6,4,24,6,8,8,10,4,6,8,5,2,5,6,4,6,2020-10-21 18:12:51.361
8,6,19,6,8,8,5,4,6,6,4,2,6,4,6,2020-10-21 18:12:51.367
7,6,16,5,4,4,6,4,6,8,2,4,4,6,8,2020-10-21 18:12:51.373
12,29,4,13,5,2,4,2,7,2,6,8,9,2020-10-21 18:12:51.380
16,4,42,8,20,6,5,8,3,8,6,2,9,2,7,8,2020-10-21 18:12:51.386
16,6,38,2,24,2,6,4,4,2,5,11,2,6,4,2020-10-21 18:12:51.393
15,34,6,26,8,6,6,3,6,3,4,12,8,6,2,2020-10-21 18:12:51.400
15,31,2,27,4,7,3,6,1,4,12,2,4,8,2020-10-21 18:12:51.405
9,8,19,2,25,6,5,4,2,8,1,2,10,3,4,2020-10-21 18:12:51.412
4,6,7,2,23,8,3,8,2,1,7,8,3,8,2020-10-21 18:12:51.418
2,2,9,8,27,2,2,6,1,0,4,6,6,4,4,2020-10-21 18:12:51.423
4,6,12,2,26,2,2,2,1,4,0,4,5,6,5,8,2020-10-21 18:12:51.430
6,4,19,8,25,2,2,4,2,0,8,4,6,6,6,2020-10-21 18:12:51.436
8,8,25,8,19,8,3,4,2,6,1,4,4,4,5,8,2020-10-21 18:12:51.443
9,26,2,18,6,4,4,2,6,1,8,3,8,5,2020-10-21 18:12:51.449
9,24,2,11,8,6,3,2,2,6,3,4,4,2,2020-10-21 18:12:51.455
6,21,4,10,4,7,2,3,4,3,2,3,2,2,4,2020-10-21 18:12:51.461
4,13,15,6,2,2,6,3,3,2,0,6,2020-10-21 18:12:51.467
2,4,6,19,6,5,2,1,8,2,8,3,2,0,4,2020-10-21 18:12:51.473
2,2,1,8,20,4,2,1,6,2,8,3,6,0,2,2020-10-21 18:12:51.478
3,8,2,24,2,3,8,1,3,6,4,1,2020-10-21 18:12:51.485
4,9,6,23,8,4,2,1,4,4,2,4,2,2020-10-21 18:12:51.491
4,6,11,4,17,4,6,2,2,6,5,2,3,8,2,2,2020-10-21 18:12:51.499
4,6,12,14,6,6,3,8,5,2,3,2,2,4,2020-10-21 18:12:51.506
4,6,12,6,10,6,7,5,5,2,2,6,3,2020-10-21 18:12:51.513
3,6,7,6,8,6,6,6,6,4,4,3,4,2,2,2020-10-21 18:12:51.519
3,6,10,8,10,10,2,5,4,4,6,5,4,1,4,2020-10-21 18:12:51.524
3,6,14,11,4,13,8,4,8,4,8,7,4,1,4,2020-10-21 18:12:51.531
4,2,18,4,9,8,19,4,2,6,9,8,2,2020-10-21 18:12:51.538
5,22,2,7,2,18,6,3,4,5,8,10,4,2,6,2020-10-21 18:12:51.544
6,8,24,5,6,18,6,2,2,6,2,9,6,3,6,2020-10-21 18:12:51.550
7,4,22,6,5,2,13,8,1,6,5,8,8,3,8,2020-10-21 18:12:51.560
6,8,21,4,4,8,2,1,4,2,6,4,2020-10-21 18:12:51.566
6,2,19,4,3,6,2,6,0,4,2,6,4,3,4,2020-10-21 18:12:51.572
5,6,17,5,4,4,2,0,6,5,6,3,6,2,4,2020-10-21 18:12:51.578
4,6,15,4,6,6,5,1,2,7,6,3,3,2020-10-21 18:12:51.584
5,13,4,6,6,6,4,2,4,10,8,6,3,4,2020-10-21 18:12:51.590
5,4,13,9,2,6,4,2,6,12,4,6,4,3,8,2020-10-21 18:12:51.597
5,8,12,6,11,8,6,4,2,8,14,6,8,4,4,2020-10-21 18:12:51.603
6,13,6,12,8,4,8,2,4,12,4,7,4,5,2020-10-21 18:12:51.609
5,4,13,4,13,6,4,6,2,9,2,8,6,4,2020-10-21 18:12:51.615
3,4,13,6,15,6,3,8,1,4,8,6,2,5,2020-10-21 18:12:51.621
5,21,2,12,8,5,6,1,2,6,2,6,8,5,4,2020-10-21 18:12:51.628
5,6,19,8,12,4,6,4,2,2,5,2,7,8,5,8,2020-10-21 18:12:51.634
6,2,18,4,12,7,2,3,2,4,2,8,8,5,8,2020-10-21 18:12:51.640
6,2,17,10,8,6,4,4,5,6,9,6,9,2020-10-21 18:12:51.646
10,2,20,8,15,4,5,6,4,8,5,6,12,6,7,8,2020-10-21 18:12:51.652
9,6,13,4,16,3,8,5,4,3,4,14,8,7,2,2020-10-21 18:12:51.665
10,15,14,2,3,5,2,3,6,16,6,6,2,2020-10-21 18:12:51.671
10,21,23,2,2,4,4,2,4,6,15,2,5,4,2020-10-21 18:12:51.678
10,6,27,8,27,4,2,2,4,6,4,4,13,2,2,2020-10-21 18:12:51.684
7,4,25,2,24,4,2,4,4,5,8,10,2,2020-10-21 18:12:51.690
6,4,25,28,3,2,3,4,6,4,7,6,1,8,2020-10-21 18:12:51.696
5,8,29,4,31,3,2,8,7,10,2,2,2020-10-21 18:12:51.702
5,6,29,4,23,2,2,6,3,6,8,16,2,4,2020-10-21 18:12:51.708
5,2,22,2,21,4,3,4,1,8,5,8,19,8,2,2,2020-10-21 18:12:51.714
4,6,19,2,21,3,8,1,6,4,6,22,6,3,6,2020-10-21 18:12:51.720
6,17,2,16,6,3,2,1,8,4,8,21,4,5,2,2020-10-21 18:12:51.726
7,10,6,12,8,3,6,2,5,15,2,5,4,2020-10-21 18:12:51.732
5,8,7,4,12,6,4,1,8,6,9,8,6,6,2020-10-21 18:12:51.738
8,10,14,4,4,4,3,2,8,8,9,2,7,8,2020-10-21 18:12:51.744
10,2,12,6,16,2,4,8,4,6,11,6,8,6,6,2,2020-10-21 18:12:51.750
8,2,14,18,4,4,6,4,4,10,4,11,8,4,2,2020-10-21 18:12:51.756
6,6,16,18,8,4,6,4,9,6,13,2,3,6,2020-10-21 18:12:51.766
7,2,14,6,15,6,4,6,4,8,13,8,3,4,2020-10-21 18:12:51.772
5,6,14,10,4,3,8,3,5,4,10,4,3,2,2020-10-21 18:12:51.778
4,13,4,5,2,3,2,2,8,7,3,8,2020-10-21 18:12:51.784
4,12,4,11,4,3,2,4,4,8,10,6,4,8,2020-10-21 18:12:51.790
3,6,10,8,19,4,2,8,3,6,4,16,7,6,2020-10-21 18:12:51.796
6,2,12,6,24,2,2,6,3,6,4,17,9,2020-10-21 18:12:51.802
8,6,15,4,28,8,1,8,2,6,6,8,19,4,9,2020-10-21 18:12:51.808
8,6,15,30,1,6,3,14,4,23,8,8,8,2020-10-21 18:12:51.814
8,8,16,4,22,4,2,8,3,8,12,8,18,6,8,2,2020-10-21 18:12:51.820
9,4,19,6,20,4,4,8,3,2,11,8,13,2,5,8,2020-10-21 18:12:51.826
7,19,4,21,6,6,8,3,2,12,4,12,2,3,2,2020-10-21 18:12:51.832
3,6,15,6,16,8,6,6,3,6,12,8,13,2,2,2,2020-10-21 18:12:51.839
3,18,18,8,6,6,4,6,5,6,12,8,1,8,2020-10-21 18:12:51.845
2,8,19,2,21,8,6,5,5,6,15,2,1,4,2020-10-21 18:12:51.852
4,2,27,4,20,6,2,6,8,4,4,16,2,1,8,2020-10-21 18:12:51.857
5,2,33,17,2,4,8,8,6,6,19,2,2,4,2020-10-21 18:12:51.863
7,2,42,2,20,4,5,6,10,7,8,20,2,2,8,2020-10-21 18:12:51.869
8,8,48,4,20,2,5,6,10,10,20,6,5,2,2020-10-21 18:12:51.875
11,8,57,8,20,8,6,8,8,2,14,4,19,8,2020-10-21 18:12:51.881
12,8,58,4,20,6,6,4,6,4,19,4,19,8,2,2020-10-21 18:12:51.887
12,58,19,8,7,4,5,20,4,17,8,10,2020-10-21 18:12:51.893
11,8,49,6,17,8,8,3,4,18,6,15,8,11,8,2020-10-21 18:12:51.900
11,6,41,2,15,8,8,6,1,8,16,8,13,8,9,4,2020-10-21 18:12:51.909
8,6,34,6,11,8,10,4,2,12,8,17,6,7,2020-10-21 18:12:51.916
6,8,23,4,7,8,8,8,2,4,8,19,6,6,4,2020-10-21 18:12:51.922
7,2,15,8,5,4,7,4,2,4,4,4,20,8,5,4,2020-10-21 18:12:51.928
6,6,13,8,6,8,8,6,2,6,5,6,22,6,4,4,2020-10-21 18:12:51.934
6,11,8,8,2,9,8,2,8,6,8,24,4,5,2020-10-21 18:12:51.940
7,4,14,10,2,7,4,2,6,6,4,19,8,4,6,2020-10-21 18:12:51.946
7,2,15,12,7,2,2,8,8,15,2,4,2,2020-10-21 18:12:51.952
7,16,13,8,7,3,9,6,10,6,4,6,2020-10-21 18:12:51.957
8,6,19,4,11,8,8,6,2,6,9,2,9,6,3,6,2020-10-21 18:12:51.968
8,2,22,2,9,6,8,2,6,7,2,8,4,3,2,2020-10-21 18:12:51.975
7,2,15,8,6,8,6,2,3,6,8,9,8,4,2,2020-10-21 18:12:51.981
8,8,20,13,8,8,2,3,6,11,6,10,2,5,2,2020-10-21 18:12:51.994
10,4,24,2,20,8,10,2,4,2,16,4,10,6,4,2020-10-21 18:12:52.001
10,8,31,6,24,6,4,4,15,4,7,4,3,4,2020-10-21 18:12:52.007
12,34,8,24,6,2,4,16,4,8,2,8,2020-10-21 18:12:52.014
13,2,38,24,6,4,3,6,16,6,2,2,2,6,2020-10-21 18:12:52.020
10,2,31,4,14,8,4,4,3,8,12,5,2,2,6,2020-10-21 18:12:52.026
8,2,25,6,7,6,3,4,2,6,5,6,5,2,2,8,2020-10-21 18:12:52.032
6,16,6,5,4,4,6,2,4,5,5,4,3,6,2020-10-21 18:12:52.038
5,8,17,6,6,4,2,2,2,4,4,7,6,4,4,2020-10-21 18:12:52.044
5,6,18,6,6,6,3,8,2,3,8,9,8,4,2020-10-21 18:12:52.050
5,6,18,2,7,6,4,4,0,6,3,8,9,8,4,8,2020-10-21 18:12:52.057
6,4,21,2,6,2,3,8,0,6,5,4,14,5,2020-10-21 18:12:52.067
7,6,23,6,16,4,6,2,0,4,6,6,14,4,5,4,2020-10-21 18:12:52.073
8,20,8,27,8,9,2,0,4,7,8,12,4,5,8,2020-10-21 18:12:52.080
8,17,6,30,8,13,4,1,4,9,6,12,2,7,2020-10-21 18:12:52.087
8,8,30,8,32,4,15,2,3,8,10,6,12,6,8,2020-10-21 18:12:52.094
7,8,39,8,34,4,17,2,6,2,11,8,10,6,7,2,2020-10-21 18:12:52.100
6,4,49,4,24,8,16,2,8,8,13,4,13,6,8,2020-10-21 18:12:52.112
7,53,2,27,2,16,4,9,8,14,6,23,6,6,4,2020-10-21 18:12:52.123
8,57,4,38,15,4,9,8,15,2,32,4,7,4,2020-10-21 18:12:52.130
7,2,55,48,2,14,7,6,12,2,33,2,6,6,2020-10-21 18:12:52.137
6,8,47,2,48,4,14,2,7,2,15,6,34,4,5,8,2020-10-21 18:12:52.143
6,4,39,4,48,6,14,4,6,8,19,35,6,8,8,2020-10-21 18:12:52.151
4,8,57,39,2,14,6,7,8,17,2,31,2,10,4,2020-10-21 18:12:52.157
3,4,49,4,25,2,12,4,9,14,8,26,10,2,2020-10-21 18:12:52.163
4,8,38,4,13,12,8,10,8,15,28,2,11,2,2020-10-21 18:12:52.174
6,39,4,24,8,12,9,4,13,2,26,4,12,2,2020-10-21 18:12:52.182
7,2,40,4,36,6,11,2,8,11,4,24,6,10,2020-10-21 18:12:52.192
6,2,17,8,38,6,9,6,8,12,2,19,4,8,2,2020-10-21 18:12:52.200
5,4,28,41,2,9,4,6,14,8,18,7,4,2020-10-21 18:12:52.206
6,2,28,6,51,2,8,2,8,15,2,15,7,2,2020-10-21 18:12:52.214
6,8,22,6,47,2,6,6,2,4,11,2,15,6,5,8,2020-10-21 18:12:52.219
6,16,4,38,6,5,4,2,6,12,4,17,2,5,2020-10-21 18:12:52.225
7,8,18,2,31,8,4,2,2,4,11,6,18,2,5,6,2020-10-21 18:12:52.232
9,15,2,32,6,4,4,3,11,4,13,8,4,2,2020-10-21 18:12:52.238
7,4,16,23,6,4,2,8,12,2,10,6,2,8,2020-10-21 18:12:52.243
5,8,16,8,14,6,3,6,2,6,13,7,4,4,6,2020-10-21 18:12:52.250
10,6,28,2,14,4,2,10,5,2,6,2020-10-21 18:12:52.255
14,2,35,6,19,4,6,1,8,12,4,4,5,2,2020-10-21 18:12:52.262
13,6,34,4,15,4,3,1,2,9,4,4,7,2020-10-21 18:12:52.267
19,44,2,23,2,5,2,2,4,8,7,6,8,8,2020-10-21 18:12:52.273
24,4,54,31,7,4,3,6,6,6,11,2,8,6,2020-10-21 18:12:52.281
24,8,53,4,35,8,6,4,6,3,8,12,8,6,8,2020-10-21 18:12:52.286
20,48,30,2,7,4,5,2,2,4,14,7,2020-10-21 18:12:52.293
19,6,49,6,32,8,7,8,5,8,6,4,20,4,5,6,2020-10-21 18:12:52.300
14,4,46,26,4,6,5,10,4,23,2,4,2020-10-21 18:12:52.306
9,2,37,2,17,8,5,3,8,11,6,22,8,4,4,2020-10-21 18:12:52.312
4,6,26,8,12,2,3,2,8,12,4,22,6,6,4,2020-10-21 18:12:52.319
5,2,21,2,15,4,3,4,2,2,11,8,22,8,8,2,2020-10-21 18:12:52.327
5,8,14,4,16,2,3,2,2,8,6,19,8,9,2020-10-21 18:12:52.334
7,2,8,2,16,2,3,1,4,5,2,17,2,10,2020-10-21 18:12:52.341
8,6,7,2,18,4,2,1,2,4,6,17,8,7,6,2020-10-21 18:12:52.357
7,4,10,4,17,2,2,6,0,8,4,2,14,6,5,4,2020-10-21 18:12:52.364
7,2,10,4,14,2,6,0,6,4,8,12,4,3,2,2020-10-21 18:12:52.375
7,10,4,10,8,2,6,0,4,5,4,10,2,2,2020-10-21 18:12:52.382
6,9,8,8,4,2,6,0,6,6,2,7,6,1,8,2020-10-21 18:12:52.389
4,8,9,8,2,2,4,1,6,6,4,6,2,2,2020-10-21 18:12:52.397
5,8,8,7,2,2,1,6,5,6,6,4,2,4,2020-10-21 18:12:52.412
5,8,10,2,8,2,2,2,1,4,4,2,7,2,2,4,2020-10-21 18:12:52.423
5,6,10,2,8,4,3,4,1,6,3,7,4,2,4,2020-10-21 18:12:52.431
5,4,10,2,8,6,4,6,1,8,1,8,7,6,1,2,2020-10-21 18:12:52.439
4,6,9,8,6,2,4,4,1,2,1,4,8,1,2,2020-10-21 18:12:52.448
4,4,7,2,6,6,4,4,1,2,2,4,6,8,1,2,2020-10-21 18:12:52.458
4,2,4,6,7,4,4,1,2,3,4,5,6,4,2,2020-10-21 18:12:52.464
7,8,9,6,9,3,1,6,4,8,4,6,5,4,2020-10-21 18:12:52.471
9,2,17,9,1,6,1,2,6,8,4,6,8,2020-10-21 18:12:52.478
11,4,25,9,4,1,8,0,8,9,3,6,7,8,2020-10-21 18:12:52.485
12,8,32,8,8,2,1,4,0,8,10,2,3,6,8,2020-10-21 18:12:52.503
11,8,33,4,7,2,1,1,2,9,4,3,5,4,2020-10-21 18:12:52.513
7,2,28,6,5,4,1,0,8,8,2,8,4,6,2020-10-21 18:12:52.519
5,4,21,4,6,4,2,0,8,5,8,2,8,4,2020-10-21 18:12:52.525
5,12,8,3,8,4,2,0,8,4,4,3,2,3,4,2020-10-21 18:12:52.532
4,6,4,6,3,4,2,0,8,3,3,6,3,6,2020-10-21 18:12:52.538
5,2,5,2,3,6,5,6,0,8,2,6,3,8,3,2,2020-10-21 18:12:52.550
5,4,5,8,2,8,5,8,0,8,2,6,4,2,2,8,2020-10-21 18:12:52.556
5,6,8,3,2,8,1,2,2,8,4,2,2,2020-10-21 18:12:52.566
3,2,9,2,3,6,2,6,1,4,1,8,3,6,1,6,2020-10-21 18:12:52.577
1,4,11,6,4,2,2,4,1,6,0,8,3,2,0,8,2020-10-21 18:12:52.583
1,6,14,2,5,2,2,2,1,2,3,0,8,2020-10-21 18:12:52.589
2,6,15,6,4,8,2,1,8,1,4,3,2,1,2,2020-10-21 18:12:52.597
3,2,21,2,6,2,2,4,1,6,2,3,8,1,6,2020-10-21 18:12:52.603
3,8,26,7,2,3,2,1,6,3,4,2,1,6,2020-10-21 18:12:52.611
4,2,32,6,10,2,4,1,8,3,4,3,6,1,8,2020-10-21 18:12:52.620
4,37,4,11,2,3,6,1,4,3,4,3,6,2,2020-10-21 18:12:52.626
3,8,34,4,16,8,3,4,1,2,2,8,3,2,1,8,2020-10-21 18:12:52.633
4,27,2,20,6,2,8,1,1,8,2,4,1,4,2020-10-21 18:12:52.639
3,2,23,4,20,2,2,1,4,1,4,1,4,2,2020-10-21 18:12:52.646
3,15,6,19,8,1,8,1,4,1,4,1,8,2,6,2020-10-21 18:12:52.654
2,8,7,8,19,6,1,4,1,4,1,4,2,2,2,8,2020-10-21 18:12:52.662
2,7,4,15,6,3,6,1,8,2,2,8,3,2020-10-21 18:12:52.669
1,2,7,11,6,5,8,2,2,2,6,3,4,3,4,2020-10-21 18:12:52.675
1,4,4,18,4,5,8,1,8,2,2,3,6,3,6,2020-10-21 18:12:52.681
3,2,12,2,20,8,6,6,2,2,2,4,4,3,6,2020-10-21 18:12:52.688
4,2,10,8,20,4,7,4,1,8,2,3,8,3,2020-10-21 18:12:52.695
7,4,28,21,4,7,2,2,2,3,2,2,4,2020-10-21 18:12:52.700
10,6,45,2,22,4,6,6,2,6,2,2,6,3,6,2020-10-21 18:12:52.706
14,6,54,8,29,4,11,6,4,6,3,2,3,4,4,2020-10-21 18:12:52.714
16,6,55,4,38,4,15,6,6,2,4,2,2,4,4,6,2020-10-21 18:12:52.720
16,2,60,6,37,4,14,4,6,6,4,8,3,2,5,8,2020-10-21 18:12:52.726
14,4,57,35,15,6,6,4,4,8,4,4,7,2020-10-21 18:12:52.733
12,6,53,4,32,6,16,8,6,2,4,8,5,6,8,2,2020-10-21 18:12:52.740
11,8,45,6,21,8,15,8,5,2,4,6,7,6,6,2020-10-21 18:12:52.746
7,8,35,8,16,2,12,3,8,3,2,6,8,6,6,2020-10-21 18:12:52.758
11,50,4,25,16,8,5,2,3,2,6,6,6,4,2020-10-21 18:12:52.764
13,6,56,8,35,8,18,4,6,6,3,4,5,6,6,6,2020-10-21 18:12:52.771
14,45,2,44,19,8,3,6,4,8,4,8,2020-10-21 18:12:52.782
11,45,8,42,2,15,8,7,8,3,4,4,5,8,2020-10-21 18:12:52.788
11,2,48,4,35,2,15,4,8,4,4,4,8,7,2,2020-10-21 18:12:52.797
9,2,34,2,32,4,13,4,7,6,4,6,6,2,7,4,2020-10-21 18:12:52.803
6,8,14,8,25,11,6,6,5,4,7,6,7,2,2020-10-21 18:12:52.811
6,6,13,4,20,2,9,6,5,6,6,2,8,8,6,6,2020-10-21 18:12:52.817
9,4,18,8,21,8,9,4,5,8,7,8,8,6,2020-10-21 18:12:52.824
12,2,24,2,23,4,9,2,6,7,8,8,8,3,8,2020-10-21 18:12:52.831
10,2,22,8,19,7,2,4,8,7,4,7,2,3,8,2020-10-21 18:12:52.837
9,2,27,19,5,6,4,2,6,2,6,4,3,8,2020-10-21 18:12:52.844
8,2,31,2,19,4,3,6,5,5,6,4,8,2020-10-21 18:12:52.851
7,8,34,4,19,4,3,4,3,4,4,6,5,2020-10-21 18:12:52.857
5,2,27,16,2,8,3,2,8,5,6,5,6,2020-10-21 18:12:52.865
5,6,23,8,12,8,2,2,3,4,2,8,6,2,5,2020-10-21 18:12:52.871
6,4,22,4,11,8,4,4,4,4,3,8,5,6,4,4,2020-10-21 18:12:52.878
6,20,8,13,2,5,4,6,4,5,3,4,2020-10-21 18:12:52.884
3,6,12,2,13,8,6,2,4,2,3,8,3,8,4,2020-10-21 18:12:52.890
3,6,14,4,13,8,6,8,3,8,4,2,4,2,4,6,2020-10-21 18:12:52.896
3,6,16,6,13,8,7,4,3,4,4,6,4,6,5,4,2020-10-21 18:12:52.902
2,24,4,13,4,5,4,2,6,4,5,4,5,4,2020-10-21 18:12:52.909
4,8,24,2,9,2,4,6,2,2,3,6,4,8,5,4,2020-10-21 18:12:52.915
7,6,24,5,3,8,1,8,3,2,4,2,4,4,2020-10-21 18:12:52.922
9,2,39,8,5,6,5,2,2,8,2,6,3,3,4,2020-10-21 18:12:52.928
10,8,55,6,6,2,6,6,3,8,2,1,8,2,4,2020-10-21 18:12:52.934
13,63,6,5,2,7,8,4,6,1,6,0,6,3,2,2020-10-21 18:12:52.940
11,66,4,10,6,9,4,8,1,6,1,8,3,2,2020-10-21 18:12:52.950
8,2,69,10,4,9,4,8,1,4,2,6,3,4,2020-10-21 18:12:52.959
6,4,55,4,9,8,7,4,3,6,1,3,2,4,2,2020-10-21 18:12:52.966
5,4,38,6,13,10,2,2,6,0,6,3,4,5,2020-10-21 18:12:52.972
4,4,21,8,16,2,13,1,6,0,2,3,6,4,2020-10-21 18:12:52.983
3,6,22,6,10,4,14,4,2,2,0,2,6,3,8,2020-10-21 18:12:52.989
3,6,23,6,10,2,17,3,0,2,4,2020-10-21 18:12:52.995
3,8,21,11,6,18,3,8,0,4,1,2,3,2,2020-10-21 18:12:53.001
2,8,32,4,10,8,14,2,4,2,0,8,1,2,2,4,2020-10-21 18:12:53.017
2,31,6,8,11,4,1,1,2,4,2020-10-21 18:12:53.026
2,25,4,6,8,9,6,3,2,1,2,1,3,2020-10-21 18:12:53.033
1,8,19,7,2,7,6,3,1,8,1,8,3,2,2020-10-21 18:12:53.039
1,4,16,2,6,7,2,2,8,2,2,8,4,4,2020-10-21 18:12:53.045
2,3,6,3,8,11,8,3,2,6,3,8,4,2,2020-10-21 18:12:53.052
2,6,6,2,9,8,10,2,3,2,8,3,6,4,2020-10-21 18:12:53.057
3,2,8,8,15,8,8,6,3,3,3,4,3,4,2020-10-21 18:12:53.064
4,10,16,2,7,4,2,6,3,2,3,2,8,2020-10-21 18:12:53.070
4,8,11,2,16,6,6,2,2,2,3,4,2,6,2,2,2020-10-21 18:12:53.076
6,2,15,4,21,8,3,4,2,2,3,4,2,4,8,2020-10-21 18:12:53.083
7,6,12,4,22,4,4,3,4,4,4,3,6,5,4,2020-10-21 18:12:53.089
7,6,10,8,29,4,3,4,4,4,2,5,8,2020-10-21 18:12:53.096
7,6,11,4,40,8,4,2,3,2,3,2,4,2,6,2,2020-10-21 18:12:53.102
7,15,6,40,2,6,8,3,2,2,6,3,6,5,2,2020-10-21 18:12:53.108
4,8,11,33,8,4,4,2,2,1,8,3,8,2,6,2020-10-21 18:12:53.115
2,8,15,2,32,8,3,8,0,8,0,6,2,6,2,2020-10-21 18:12:53.128
2,2,18,25,8,3,8,0,6,0,8,2,4,1,4,2020-10-21 18:12:53.134
1,8,21,4,13,2,4,6,0,6,1,1,8,1,2020-10-21 18:12:53.141
2,17,6,23,4,3,6,0,8,1,2,4,1,8,2020-10-21 18:12:53.148
3,8,17,6,25,8,5,4,1,6,1,2,4,2,2020-10-21 18:12:53.154
4,4,20,2,27,2,7,4,2,4,1,6,2,2,2,2,2020-10-21 18:12:53.159
5,22,8,28,6,9,4,3,2,2,2,2,2,4,2020-10-21 18:12:53.166
5,4,24,8,35,6,10,6,3,8,2,8,2,2,3,4,2020-10-21 18:12:53.172
5,6,24,8,25,6,9,6,3,6,3,6,2,4,2020-10-21 18:12:53.179
5,2,25,4,24,8,7,2,2,8,3,8,2,2,5,2020-10-21 18:12:53.190
5,6,19,4,19,2,5,2,3,4,3,2,6,2020-10-21 18:12:53.197
6,4,13,13,6,4,8,1,4,2,8,3,8,7,2020-10-21 18:12:53.203
7,2,6,6,8,4,6,0,8,2,2,4,4,6,2020-10-21 18:12:53.209
6,8,6,2,14,2,6,4,1,2,2,4,4,5,2020-10-21 18:12:53.216
7,8,8,2,15,6,8,2,2,2,2,4,3,6,2020-10-21 18:12:53.222
7,2,13,21,6,8,6,2,8,2,2,2,8,2,2,2020-10-21 18:12:53.229
6,2,18,2,28,2,8,4,3,2,2,4,2,1,8,2020-10-21 18:12:53.234
6,4,20,8,28,8,6,6,3,4,2,4,1,8,3,8,2020-10-21 18:12:53.240
8,22,6,23,4,8,2,6,1,8,3,5,8,2020-10-21 18:12:53.247
7,6,22,4,21,6,5,1,6,1,4,3,8,6,2020-10-21 18:12:53.254
7,20,8,15,3,8,1,6,1,4,4,4,6,2,2020-10-21 18:12:53.260
6,8,20,6,7,4,3,2,1,4,1,2,4,4,6,4,2020-10-21 18:12:53.266
7,8,25,9,2,4,2,1,8,2,2,4,5,6,2020-10-21 18:12:53.272
7,2,23,2,8,6,5,2,2,2,8,3,8,4,8,2020-10-21 18:12:53.279
6,6,21,4,8,6,2,2,2,3,4,3,6,6,2,2020-10-21 18:12:53.285
7,8,18,2,6,8,7,2,1,8,3,8,4,4,6,2,2020-10-21 18:12:53.291
7,8,17,8,6,6,4,1,4,3,8,4,4,6,2020-10-21 18:12:53.297
6,4,11,4,6,6,5,2,1,6,3,4,8,5,4,2020-10-21 18:12:53.303
6,6,11,6,10,8,3,6,2,4,2,6,4,4,2020-10-21 18:12:53.309
5,6,13,8,11,4,3,8,3,2,2,2,2,6,2,6,2020-10-21 18:12:53.316
4,6,16,12,4,4,1,8,1,2,4,2,2020-10-21 18:12:53.322
4,6,11,2,12,2,5,4,4,6,3,8,6,3,2,2020-10-21 18:12:53.328
3,4,19,2,9,8,6,3,8,4,6,4,2,6,2020-10-21 18:12:53.334
2,20,2,6,6,10,8,3,4,3,8,6,4,2,8,2020-10-21 18:12:53.340
1,8,19,2,7,13,8,3,3,6,7,3,2020-10-21 18:12:53.346
1,6,18,2,7,4,16,8,2,6,3,4,7,6,3,4,2020-10-21 18:12:53.352
4,6,25,2,15,15,2,2,6,1,4,4,2,3,4,2020-10-21 18:12:53.358
4,4,20,8,13,18,2,6,0,8,3,2,3,2020-10-21 18:12:53.365
4,4,23,4,11,8,16,6,2,2,0,6,2,6,2,8,2020-10-21 18:12:53.371
4,8,23,4,12,2,12,2,2,0,8,2,8,2,6,2020-10-21 18:12:53.377
5,2,23,4,12,6,7,4,2,2,1,3,3,2,2020-10-21 18:12:53.382
6,2,22,8,13,7,4,2,1,4,2,8,3,8,2020-10-21 18:12:53.392
8,2,31,6,13,8,5,1,8,2,2,3,4,5,2020-10-21 18:12:53.400
8,4,28,6,14,4,2,8,1,6,2,4,4,8,6,2020-10-21 18:12:53.407
8,2,28,2,13,4,3,8,1,2,2,5,4,8,2,2020-10-21 18:12:53.414
10,26,17,8,5,6,1,2,2,8,9,4,7,8,2020-10-21 18:12:53.420
7,8,19,2,16,7,4,1,6,3,2,13,8,6,2020-10-21 18:12:53.426
6,6,7,4,15,8,7,4,1,8,2,6,14,6,8,8,2020-10-21 18:12:53.432
7,2,7,4,15,8,7,2,2,2,6,15,4,8,2020-10-21 18:12:53.438
7,4,9,2,15,6,8,6,2,6,3,16,2,6,2020-10-21 18:12:53.445
5,6,12,8,10,9,2,2,4,2,6,13,6,4,2020-10-21 18:12:53.452
3,6,20,8,5,2,7,4,2,4,1,8,9,4,3,6,2020-10-21 18:12:53.465
3,8,24,4,7,8,8,2,3,2,2,8,4,2,2,2020-10-21 18:12:53.471
2,8,22,4,8,7,6,2,8,2,4,7,4,1,8,2020-10-21 18:12:53.478
2,2,18,6,8,4,5,4,2,2,2,2,6,4,1,6,2020-10-21 18:12:53.484
2,2,15,4,9,8,3,8,1,8,2,4,4,6,1,4,2020-10-21 18:12:53.491
2,4,11,8,12,6,2,1,2,3,5,2,0,6,2020-10-21 18:12:53.499
1,8,10,8,12,2,7,0,6,3,2,5,2,2,2020-10-21 18:12:53.506
2,12,2,13,7,2,1,2,3,6,5,2,3,4,2020-10-21 18:12:53.512
2,2,13,6,13,8,7,4,1,8,4,5,2,4,4,2020-10-21 18:12:53.520
2,6,13,6,16,2,7,8,2,4,6,6,6,4,8,2020-10-21 18:12:53.528
3,8,9,6,15,6,5,4,2,8,5,6,8,5,2020-10-21 18:12:53.534
4,2,12,2,15,4,6,2,6,5,2,5,6,4,2020-10-21 18:12:53.540
5,18,16,2,5,8,2,5,4,4,4,2,8,2020-10-21 18:12:53.546
7,22,2,15,6,7,2,1,6,5,3,8,1,8,2020-10-21 18:12:53.552
8,2,27,2,12,4,7,8,1,4,4,2,6,2,6,2020-10-21 18:12:53.559
8,8,31,11,4,10,4,0,8,3,2,2,2,2,6,2020-10-21 18:12:53.564
10,34,2,12,2,11,2,1,2,6,2,4,2,2,2020-10-21 18:12:53.570
9,2,28,8,9,2,9,6,1,2,2,3,2,3,8,2020-10-21 18:12:53.576
9,6,31,8,15,4,9,2,2,4,2,6,4,2,5,4,2020-10-21 18:12:53.582
10,34,8,21,6,8,8,3,8,3,5,2,5,2020-10-21 18:12:53.592
8,6,31,6,20,7,8,3,4,3,5,5,6,2020-10-21 18:12:53.598
7,4,22,4,16,6,7,3,2,3,5,6,5,6,2020-10-21 18:12:53.604
8,2,25,6,21,4,8,2,3,4,3,4,8,4,2020-10-21 18:12:53.610
6,4,20,6,14,6,8,2,6,2,2,3,4,2,4,2020-10-21 18:12:53.617
4,6,15,6,6,6,5,4,1,8,1,4,2,3,2,2020-10-21 18:12:53.623
7,22,8,10,2,3,6,2,2,1,8,2,8,4,2020-10-21 18:12:53.630
9,4,30,13,8,1,8,2,6,2,2,3,6,4,6,2020-10-21 18:12:53.635
9,8,31,2,13,2,1,6,2,8,1,6,4,2,5,2020-10-21 18:12:53.642
10,4,33,8,17,4,2,6,2,4,1,6,4,6,5,6,2020-10-21 18:12:53.649
10,4,38,19,4,2,6,1,8,1,8,4,6,4,6,2020-10-21 18:12:53.655
7,8,37,4,17,4,2,8,1,6,1,2,3,2,3,8,2020-10-21 18:12:53.661
8,45,6,20,6,3,6,1,4,0,4,1,8,4,2,2020-10-21 18:12:53.666
10,2,56,23,6,3,2,1,2,0,4,1,4,3,8,2020-10-21 18:12:53.672
8,8,56,2,19,4,2,2,0,8,0,8,1,2,4,2020-10-21 18:12:53.679
9,4,52,8,19,2,3,1,4,1,1,8,5,2,2020-10-21 18:12:53.684
10,4,44,8,18,8,3,4,1,4,1,4,4,2,6,2,2020-10-21 18:12:53.690
8,6,28,13,2,3,2,1,4,2,6,6,7,2,2020-10-21 18:12:53.697
6,8,11,2,7,6,3,1,4,2,6,9,8,2020-10-21 18:12:53.703
7,8,5,2,9,6,4,2,2,2,8,9,6,7,4,2020-10-21 18:12:53.709
6,6,4,2,7,6,3,6,1,2,3,2,9,2,5,4,2020-10-21 18:12:53.715
5,6,8,8,4,6,1,6,2,6,6,8,5,2,2020-10-21 18:12:53.721
4,4,17,6,7,4,4,8,1,8,3,6,5,6,5,2020-10-21 18:12:53.728
3,2,27,2,6,8,5,2,4,6,4,4,6,4,2020-10-21 18:12:53.734
5,4,31,4,10,2,7,4,3,2,5,4,5,4,8,4,2020-10-21 18:12:53.739
8,4,32,6,15,8,10,8,5,6,7,9,2020-10-21 18:12:53.746
7,8,29,4,14,9,4,4,4,6,7,7,8,2020-10-21 18:12:53.752
7,4,20,4,13,2,8,8,4,4,4,5,8,6,2020-10-21 18:12:53.758
7,6,14,12,8,8,2,3,8,2,8,4,4,3,6,2020-10-21 18:12:53.764
4,4,10,6,8,4,4,8,2,2,1,6,2,6,2,2,2020-10-21 18:12:53.770
3,6,19,6,6,4,2,4,1,6,0,8,1,4,2,2020-10-21 18:12:53.776
5,2,32,6,11,8,3,6,1,8,1,1,8,1,6,2020-10-21 18:12:53.783
5,4,35,2,13,2,4,4,2,2,1,6,2,6,1,8,2020-10-21 18:12:53.792
5,35,2,14,2,5,2,2,4,2,2,3,6,3,6,2020-10-21 18:12:53.798
8,2,45,2,20,4,5,3,2,3,4,5,2,4,4,2020-10-21 18:12:53.804
9,42,8,24,2,3,8,3,4,2,6,2,4,6,2020-10-21 18:12:53.810
8,32,6,18,8,3,2,3,2,4,2,5,8,5,2020-10-21 18:12:53.822
8,4,32,8,17,4,3,3,2,3,8,5,5,6,2020-10-21 18:12:53.830
9,30,2,17,6,2,3,3,8,4,8,4,6,2020-10-21 18:12:53.836
6,8,19,4,12,2,1,8,2,2,3,3,8,3,2020-10-21 18:12:53.842
4,2,13,7,4,2,2,1,2,1,6,2,6,2,6,2020-10-21 18:12:53.848
4,14,6,9,6,2,0,8,1,4,3,3,4,2020-10-21 18:12:53.854
5,6,14,2,11,8,3,4,2,2,4,3,8,4,2020-10-21 18:12:53.860
7,16,6,12,4,5,6,3,4,3,4,3,2,2020-10-21 18:12:53.866
6,16,2,12,7,3,4,2,8,3,6,4,4,2020-10-21 18:12:53.872
6,4,14,8,11,4,8,2,4,4,3,6,4,2,5,6,2020-10-21 18:12:53.878
6,8,13,4,10,8,9,4,5,4,4,4,4,8,4,2,2020-10-21 18:12:53.884
4,8,14,8,8,7,4,4,3,4,4,2,3,6,2020-10-21 18:12:53.890
3,4,11,2,10,5,6,3,8,3,6,4,4,4,6,2020-10-21 18:12:53.896
5,4,17,2,9,2,5,4,2,3,8,4,4,4,2,2020-10-21 18:12:53.902
6,4,19,8,8,4,3,8,3,6,3,6,3,8,2020-10-21 18:12:53.908
7,6,27,4,12,6,3,4,3,4,3,4,3,4,8,2020-10-21 18:12:53.915
9,4,35,18,6,4,4,3,8,3,8,3,2,5,4,2020-10-21 18:12:53.921
10,4,40,8,16,8,6,4,3,4,2,6,3,2,5,8,2020-10-21 18:12:53.927
10,4,40,6,18,8,3,8,2,2,4,5,4,2020-10-21 18:12:53.933
9,4,38,4,20,8,8,2,4,1,6,3,8,5,2020-10-21 18:12:53.939
8,2,31,2,17,8,8,4,2,1,3,4,4,4,2020-10-21 18:12:53.945
6,4,21,2,12,4,7,4,2,1,3,3,4,2020-10-21 18:12:53.951
4,8,16,4,11,6,4,8,3,8,1,4,2,3,2020-10-21 18:12:53.957
3,6,18,8,13,4,3,8,3,4,2,2,2,3,4,2020-10-21 18:12:53.963
3,4,23,2,13,6,4,2,3,2,3,2,3,3,6,2020-10-21 18:12:53.969
4,2,20,6,12,6,4,6,3,4,4,3,4,4,2020-10-21 18:12:53.977
5,6,20,8,14,5,8,3,8,4,2,3,8,4,2,2020-10-21 18:12:53.983
5,4,20,4,13,4,6,6,3,8,4,2,4,3,8,2020-10-21 18:12:53.989
4,8,12,8,10,2,6,2,3,8,3,8,3,2,2,8,2020-10-21 18:12:53.999
4,5,8,7,6,5,6,3,6,2,8,2,2,3,4,2020-10-21 18:12:54.004
2,8,7,4,7,6,4,4,2,8,2,2,2,4,2020-10-21 18:12:54.010
1,6,9,7,6,3,2,2,1,2,2,2,4,2,2020-10-21 18:12:54.017
3,8,8,8,8,2,8,1,6,1,2,3,8,2020-10-21 18:12:54.023
4,2,9,4,11,6,2,8,2,1,2,2,4,2020-10-21 18:12:54.029
5,6,9,4,13,8,3,2,6,1,6,2,6,3,2020-10-21 18:12:54.037
5,2,7,13,8,3,2,6,1,6,2,2,2020-10-21 18:12:54.043
4,8,4,6,13,8,3,2,6,1,6,1,4,2,2,2020-10-21 18:12:54.049
4,9,6,16,8,5,6,3,4,1,8,1,8,3,2020-10-21 18:12:54.055
3,4,13,8,18,2,7,8,3,4,1,8,1,8,4,4,2020-10-21 18:12:54.061
4,20,2,20,2,7,6,2,4,1,6,2,2,4,2,2020-10-21 18:12:54.067
4,6,20,2,20,2,8,8,2,8,2,2,4,4,4,2020-10-21 18:12:54.073
4,6,20,8,19,9,3,2,2,6,3,6,2020-10-21 18:12:54.079
4,6,19,15,4,6,4,2,1,8,2,4,2,8,2020-10-21 18:12:54.085
4,6,17,2,11,8,3,8,1,1,6,2,2,2,6,2020-10-21 18:12:54.091
6,17,6,8,2,3,6,1,6,1,2,1,8,3,8,2020-10-21 18:12:54.097
8,6,25,2,7,4,2,8,1,6,0,8,2,2,4,4,2020-10-21 18:12:54.103
9,4,29,6,9,6,3,4,2,2,3,6,5,4,2020-10-21 18:12:54.109
9,6,31,4,12,3,8,2,8,2,8,4,8,6,2,2020-10-21 18:12:54.115
9,6,33,2,10,8,4,2,2,8,2,6,5,5,8,2020-10-21 18:12:54.121
7,30,6,9,4,6,2,2,2,8,5,4,4,2020-10-21 18:12:54.128
4,6,26,8,8,2,5,8,1,8,2,8,4,4,3,4,2020-10-21 18:12:54.135
4,21,6,6,5,2,1,6,1,8,3,3,8,2020-10-21 18:12:54.140
4,4,16,8,7,8,5,6,1,2,1,4,2,4,4,4,2020-10-21 18:12:54.147
5,12,13,2,6,1,6,2,2,8,3,6,2020-10-21 18:12:54.153
4,4,7,6,13,6,5,6,1,8,2,2,6,4,2,2020-10-21 18:12:54.165
4,8,2,13,3,8,1,6,2,4,3,2,4,6,2020-10-21 18:12:54.171
4,2,12,8,12,3,4,1,2,6,3,6,3,6,2020-10-21 18:12:54.178
3,4,17,7,2,0,6,2,2,3,2,2,8,2020-10-21 18:12:54.185
3,6,20,8,7,8,2,0,8,1,6,2,6,2,8,2020-10-21 18:12:54.191
3,4,24,6,10,2,2,4,0,8,2,2,6,3,2,2020-10-21 18:12:54.200
4,6,23,2,11,4,2,6,1,2,2,2,2,6,3,6,2020-10-21 18:12:54.206
5,8,21,8,12,6,2,8,1,6,2,4,2,6,4,2,2020-10-21 18:12:54.213
8,4,26,4,12,2,3,2,2,2,6,2,6,4,6,2020-10-21 18:12:54.219
10,31,4,6,2,2,1,8,3,2,8,4,6,2020-10-21 18:12:54.225
10,6,29,4,6,4,1,8,1,6,2,8,3,3,8,2020-10-21 18:12:54.231
9,4,28,8,8,2,2,1,2,2,6,3,3,2,2020-10-21 18:12:54.237
8,26,4,6,6,2,2,1,2,2,2,2,8,2,4,2020-10-21 18:12:54.243
5,2,18,6,8,2,1,2,1,8,2,6,1,4,2020-10-21 18:12:54.249
2,2,13,2,8,8,2,8,1,4,1,6,2,2,1,8,2020-10-21 18:12:54.255
2,4,10,6,12,4,8,2,1,8,2,2,6,2020-10-21 18:12:54.260
3,6,8,9,6,6,2,6,2,2,2,3,2,2020-10-21 18:12:54.266
5,7,2,10,2,7,6,2,8,2,4,2,6,3,4,2020-10-21 18:12:54.273
5,8,6,6,10,7,6,2,6,2,6,2,4,3,4,2020-10-21 18:12:54.279
6,1,8,9,6,6,2,2,6,2,8,3,2020-10-21 18:12:54.285
5,6,1,4,3,6,4,2,1,4,2,4,3,2,4,2020-10-21 18:12:54.292
4,6,2,6,7,6,3,2,1,2,2,2,2,8,1,8,2020-10-21 18:12:54.298
3,6,3,8,11,6,2,2,1,2,2,6,2,2020-10-21 18:12:54.304
3,6,4,4,14,8,2,6,1,1,6,3,2,8,2020-10-21 18:12:54.310
5,6,6,16,8,3,1,4,1,4,2,6,3,4,2020-10-21 18:12:54.317
5,8,2,17,3,1,6,1,6,2,6,3,8,2020-10-21 18:12:54.323
4,6,8,2,13,4,2,4,1,4,1,8,2,6,4,2020-10-21 18:12:54.329
5,2,10,8,10,8,1,6,1,2,1,6,2,4,3,2,2020-10-21 18:12:54.335
4,4,16,11,2,1,2,1,2,2,2,2,6,2020-10-21 18:12:54.340
3,15,6,8,6,1,8,1,4,1,8,2,4,2,2,2020-10-21 18:12:54.347
3,15,8,7,8,2,8,1,8,1,2,2,4,2,4,2020-10-21 18:12:54.353
3,4,16,4,7,3,2,2,2,1,4,2,3,4,2020-10-21 18:12:54.359
4,4,14,6,9,4,8,2,6,1,6,2,4,4,2,2020-10-21 18:12:54.365
5,10,4,6,4,4,8,2,6,1,2,2,8,4,4,2020-10-21 18:12:54.371
5,6,10,8,10,6,4,6,3,1,6,3,4,6,2020-10-21 18:12:54.377
6,2,11,2,14,8,4,4,3,4,2,3,2,4,2,2020-10-21 18:12:54.384
6,4,11,2,19,4,8,3,8,1,6,3,8,2,8,2020-10-21 18:12:54.390
4,2,13,2,19,2,3,8,3,6,1,6,3,2,2,2,2020-10-21 18:12:54.396
3,4,15,4,22,6,4,2,3,8,2,2,8,1,8,2020-10-21 18:12:54.405
2,6,17,6,22,4,3,8,3,2,2,2,2,3,2,2020-10-21 18:12:54.412
5,19,6,21,2,3,8,3,4,3,2,2,6,3,2,2020-10-21 18:12:54.418
4,6,19,18,2,3,2,2,8,3,4,2,4,3,4,2020-10-21 18:12:54.424
5,20,15,4,4,8,2,6,3,2,2,4,3,4,2020-10-21 18:12:54.431
5,8,16,2,11,8,4,6,2,4,3,2,2,4,4,2020-10-21 18:12:54.438
6,2,12,6,10,4,5,2,2,3,2,4,2,8,2020-10-21 18:12:54.444
3,4,9,2,10,5,1,2,1,6,1,4,5,4,2020-10-21 18:12:54.450
5,6,11,4,9,6,4,8,1,4,2,2,2,8,8,2,2020-10-21 18:12:54.456
7,8,9,8,9,2,2,8,1,8,3,2,4,6,9,2,2020-10-21 18:12:54.461
9,4,9,6,9,3,4,1,8,3,4,6,9,6,2020-10-21 18:12:54.468
11,4,9,2,6,6,3,4,1,8,3,4,6,13,2,2020-10-21 18:12:54.475
28,2,14,4,7,8,3,2,2,4,4,6,4,12,2020-10-21 18:12:54.481
27,2,11,2,11,2,3,8,2,6,4,5,6,17,6,2020-10-21 18:12:54.487
33,23,22,4,8,2,4,3,6,4,19,2020-10-21 18:12:54.493
42,30,6,21,8,7,8,4,4,4,8,20,4,2020-10-21 18:12:54.500
51,38,2,21,2,7,4,4,4,4,5,6,19,2,2020-10-21 18:12:54.508
41,8,34,4,19,7,6,4,8,3,8,4,20,4,2020-10-21 18:12:54.515
48,2,36,16,4,7,8,5,6,3,2,3,2,13,4,2020-10-21 18:12:54.521
47,8,25,8,6,8,6,8,4,8,2,6,3,12,6,2020-10-21 18:12:54.533
44,4,23,2,9,6,9,8,5,8,2,2,2,2,14,2020-10-21 18:12:54.540
47,6,18,2,12,11,6,6,2,1,8,2,2,12,4,2020-10-21 18:12:54.545
43,6,20,8,10,8,10,6,5,2,1,4,2,2,10,8,2020-10-21 18:12:54.552
39,6,23,4,9,6,9,6,4,2,1,2,2,10,6,2020-10-21 18:12:54.558
35,6,22,8,7,6,6,3,6,1,2,4,11,2020-10-21 18:12:54.564
36,21,10,5,4,2,3,9,2,2020-10-21 18:12:54.570
23,2,23,6,10,2,12,2,7,2,2,6,10,6,2020-10-21 18:12:54.576
21,2,30,6,12,18,2,6,4,3,3,4,12,2020-10-21 18:12:54.581
19,2,37,6,13,8,24,2,5,8,4,4,2,13,4,2020-10-21 18:12:54.588
17,2,44,6,15,6,30,2,5,2,5,5,16,2020-10-21 18:12:54.594
16,2,41,8,15,30,6,6,5,5,8,21,8,2020-10-21 18:12:54.600
19,4,49,2,12,8,46,4,12,6,9,6,10,2,26,8,2020-10-21 18:12:54.610
22,4,50,4,10,6,65,8,22,8,13,2,14,24,2,2020-10-21 18:12:54.616
28,6,42,2,10,2,60,8,25,8,13,2,13,23,4,2020-10-21 18:12:54.623
28,6,30,6,14,8,71,28,13,13,6,20,8,2020-10-21 18:12:54.630
23,2,30,17,4,84,2,27,8,12,8,13,8,14,4,2020-10-21 18:12:54.636
22,8,18,8,17,4,71,4,19,4,8,4,9,6,8,8,2020-10-21 18:12:54.642
26,2,10,6,18,8,63,11,8,4,2,4,8,10,8,2020-10-21 18:12:54.649
26,4,11,8,18,4,79,11,4,3,6,4,8,9,6,2020-10-21 18:12:54.654
27,8,15,6,17,8,65,6,9,8,2,8,4,2,8,4,2020-10-21 18:12:54.660
29,2,19,4,17,2,52,2,8,2,2,3,6,9,8,2020-10-21 18:12:54.666
29,6,23,22,6,44,8,8,8,4,8,3,6,10,4,2020-10-21 18:12:54.672
26,2,23,6,26,6,33,8,6,7,4,4,2,11,2020-10-21 18:12:54.678
22,8,24,2,30,6,21,2,8,4,10,4,8,12,4,2020-10-21 18:12:54.684
24,2,23,4,27,28,6,13,2,18,6,6,16,2020-10-21 18:12:54.690
36,19,4,26,6,26,16,2,23,6,8,13,8,2020-10-21 18:12:54.697
38,2,14,6,21,6,21,4,14,20,2,6,4,11,6,2020-10-21 18:12:54.702
40,4,9,8,16,6,16,8,11,8,17,4,6,11,2,2020-10-21 18:12:54.708
41,8,11,6,18,2,17,6,24,7,8,10,6,2020-10-21 18:12:54.714
40,6,6,6,11,2,11,6,19,6,20,2,6,2,7,8,2020-10-21 18:12:54.721
29,8,8,4,7,6,15,23,4,20,6,5,8,8,2020-10-21 18:12:54.726
27,9,6,9,4,18,30,6,25,2,5,4,11,2020-10-21 18:12:54.733
27,2,14,8,10,6,27,2,32,4,25,8,7,2,11,4,2020-10-21 18:12:54.739
29,17,11,8,30,4,26,2,17,6,8,13,4,2020-10-21 18:12:54.745
32,6,22,11,8,27,8,25,2,18,2,7,8,13,6,2020-10-21 18:12:54.751
30,8,24,15,8,25,2,20,2,16,6,8,6,13,8,2020-10-21 18:12:54.757
29,26,19,8,22,6,15,2,15,9,4,12,8,2020-10-21 18:12:54.763
24,2,24,24,4,13,8,15,6,17,4,8,8,15,8,2020-10-21 18:12:54.769
26,8,25,8,25,4,13,6,19,4,18,4,6,6,18,4,2020-10-21 18:12:54.775
29,4,22,2,24,8,35,16,2,12,6,5,2,22,8,2020-10-21 18:12:54.781
37,4,21,6,20,2,56,4,17,9,6,4,27,2,2020-10-21 18:12:54.787
45,4,21,15,6,77,8,17,8,6,6,2,8,26,6,2020-10-21 18:12:54.792
52,6,23,8,12,90,6,18,2,4,2,6,22,2020-10-21 18:12:54.799
52,4,22,8,12,94,8,15,2,2,8,4,19,2020-10-21 18:12:54.805
43,4,20,8,14,4,74,6,14,6,6,5,4,16,2020-10-21 18:12:54.814
34,4,18,8,16,8,54,4,14,9,2,6,8,12,8,2020-10-21 18:12:54.821
32,6,22,16,43,2,14,12,7,4,14,6,2020-10-21 18:12:54.826
31,6,21,8,14,2,40,6,14,4,14,4,7,15,2020-10-21 18:12:54.833
22,4,17,2,12,32,2,14,16,8,7,4,14,2,2020-10-21 18:12:54.841
22,8,22,8,9,4,33,4,12,4,13,2,5,8,13,4,2020-10-21 18:12:54.847
23,2,28,4,6,8,34,6,10,8,9,6,4,2,12,8,2020-10-21 18:12:54.854
16,4,28,8,7,4,26,8,8,6,6,4,3,4,10,2020-10-21 18:12:54.860
10,22,6,8,6,17,6,6,4,8,2,4,8,6,2020-10-21 18:12:54.866
11,8,20,8,10,2,14,2,4,2,3,2,0,6,7,2020-10-21 18:12:54.873
11,8,18,4,8,6,11,4,6,2,8,6,0,8,7,2,2020-10-21 18:12:54.879
14,4,13,7,2,13,4,6,8,11,2,0,8,7,4,2020-10-21 18:12:54.886
17,7,6,5,8,15,4,7,4,13,8,0,8,7,4,2020-10-21 18:12:54.900
15,2,8,8,5,2,24,12,8,13,8,1,7,4,2020-10-21 18:12:54.906
13,4,10,4,6,32,6,18,2,13,8,1,2,6,8,2020-10-21 18:12:54.912
15,6,9,8,6,8,39,4,17,4,10,2,1,2,4,4,2020-10-21 18:12:54.918
15,2,12,6,8,8,41,4,18,9,4,1,4,4,8,2020-10-21 18:12:54.924
20,11,2,12,4,45,4,18,2,6,8,2,6,5,2020-10-21 18:12:54.931
24,6,10,2,14,40,4,14,4,6,2,2,8,8,6,2020-10-21 18:12:54.937
30,4,9,8,13,8,31,2,9,2,5,3,8,12,2,2020-10-21 18:12:54.943
32,6,6,6,13,25,2,7,8,3,6,4,6,15,8,2020-10-21 18:12:54.950
34,8,3,4,12,2,19,2,6,4,2,2,5,4,13,2,2020-10-21 18:12:54.956
26,8,7,2,10,8,22,6,6,2,3,5,2,14,8,2020-10-21 18:12:54.962
30,10,8,10,4,23,2,5,2,2,6,13,2020-10-21 18:12:54.968
32,13,8,11,8,28,5,2,2,6,11,2,2020-10-21 18:12:54.974
34,16,8,13,2,32,8,5,4,1,8,6,8,2020-10-21 18:12:54.981
28,2,17,8,12,8,38,2,4,8,3,8,4,8,8,2,2020-10-21 18:12:54.987
27,4,16,11,4,32,2,3,4,5,4,3,6,8,8,2020-10-21 18:12:54.993
24,2,12,6,10,8,46,2,5,8,5,8,3,8,6,2020-10-21 18:12:55.000
19,4,9,2,8,2,49,7,10,2,4,2,8,4,2020-10-21 18:12:55.006
14,6,5,8,5,6,51,8,8,2,14,6,5,4,9,6,2020-10-21 18:12:55.016
17,6,4,4,4,8,54,10,2,16,8,7,8,8,8,2020-10-21 18:12:55.022
18,8,2,8,3,6,54,6,10,6,16,8,2,6,2020-10-21 18:12:55.028
21,2,4,6,5,2,37,6,9,2,16,8,8,2,4,2020-10-21 18:12:55.034
25,2,6,4,8,8,31,8,9,13,6,6,4,2,2020-10-21 18:12:55.040
29,2,8,2,12,4,26,8,8,10,4,4,6,0,8,2020-10-21 18:12:55.046
28,2,8,8,12,6,20,4,8,4,9,8,3,6,1,6,2020-10-21 18:12:55.053
29,9,6,13,2,16,4,9,6,12,2,4,6,1,8,2020-10-21 18:12:55.060
25,2,9,2,11,8,22,6,12,4,14,6,5,2,3,8,2020-10-21 18:12:55.068
18,2,8,6,8,8,40,6,14,2,15,2,5,2,5,8,2020-10-21 18:12:55.075
11,2,8,5,8,58,6,16,15,8,5,2,7,2020-10-21 18:12:55.082
9,2,8,6,6,2,76,4,18,13,8,4,4,7,4,2020-10-21 18:12:55.087
7,2,8,9,2,87,4,20,2,11,8,3,4,9,2020-10-21 18:12:55.093
9,4,6,2,9,2,79,15,8,11,2,2,6,8,8,2020-10-21 18:12:55.100
14,8,4,6,10,8,58,8,12,4,12,4,2,4,8,4,2020-10-21 18:12:55.107
17,4,6,2,10,4,44,2,13,2,14,8,1,8,8,2020-10-21 18:12:55.118
20,7,8,10,29,6,14,17,2,1,2,8,2,2020-10-21 18:12:55.129
21,4,8,9,17,2,11,2,17,2,2,2,7,8,2020-10-21 18:12:55.136
17,4,8,6,9,18,2,12,16,3,2,6,2,2020-10-21 18:12:55.143
17,6,10,2,11,8,19,4,16,4,16,6,3,6,4,8,2020-10-21 18:12:55.151
20,6,8,6,16,6,15,16,6,16,4,4,4,4,2020-10-21 18:12:55.158
25,4,8,8,17,4,13,4,12,2,12,4,6,3,6,2020-10-21 18:12:55.165
23,8,8,6,16,13,8,11,6,10,2,3,2,2,8,2020-10-21 18:12:55.172
22,2,8,4,14,6,14,2,11,8,4,1,8,3,2,2020-10-21 18:12:55.178
16,4,7,2,10,4,14,4,6,8,4,8,1,4,6,2020-10-21 18:12:55.191
14,4,7,6,6,2,12,6,3,2,2,2,0,4,5,2020-10-21 18:12:55.202
10,6,6,2,6,8,4,2,3,0,4,5,2020-10-21 18:12:55.214
14,2,12,6,2,6,6,4,4,3,2,0,8,4,6,2020-10-21 18:12:55.224
16,4,13,5,8,4,6,5,2,3,1,2,4,2,2020-10-21 18:12:55.232
18,6,14,5,4,2,6,6,2,8,1,6,2,8,2020-10-21 18:12:55.239
15,2,13,6,5,5,5,4,1,8,1,6,1,4,2020-10-21 18:12:55.245
11,8,13,2,4,6,7,4,4,8,0,8,1,6,1,2,2020-10-21 18:12:55.251
10,8,9,2,7,2,6,8,5,1,6,1,8,1,4,2020-10-21 18:12:55.258
11,2,10,10,4,6,8,4,6,2,8,2,2,4,2020-10-21 18:12:55.265
12,4,8,6,11,4,9,4,3,8,4,2,6,2,6,2020-10-21 18:12:55.273
14,10,11,4,7,4,4,6,4,8,2,8,2,8,2020-10-21 18:12:55.279
15,6,11,4,11,4,5,4,5,4,5,6,3,2,6,2020-10-21 18:12:55.286
13,2,9,7,8,6,8,5,5,2,2,4,2,4,2020-10-21 18:12:55.293
10,8,2,6,2,11,4,6,2,5,6,2,2,1,4,2020-10-21 18:12:55.299
6,9,6,6,8,13,4,7,8,6,1,6,2,2020-10-21 18:12:55.306
4,4,7,11,2,13,8,7,2,6,1,6,2,6,2020-10-21 18:12:55.320
2,8,4,4,15,6,14,2,6,6,6,1,6,2,4,2020-10-21 18:12:55.326
4,4,5,8,18,4,14,4,6,2,5,2,1,6,2,8,2020-10-21 18:12:55.332
5,4,6,18,6,18,4,5,2,3,8,1,6,3,2,2020-10-21 18:12:55.339
6,4,6,2,18,8,22,4,4,2,2,4,1,6,2,8,2020-10-21 18:12:55.345
5,4,6,8,16,8,22,4,3,8,1,6,1,8,4,2020-10-21 18:12:55.352
6,2,6,8,13,8,22,8,3,0,8,2,6,6,2,2020-10-21 18:12:55.359
5,6,6,12,8,22,4,2,8,1,3,8,5,6,2020-10-21 18:12:55.364
5,6,4,8,11,6,15,6,2,2,1,3,4,5,2020-10-21 18:12:55.370
5,6,3,6,10,4,8,8,1,6,1,3,4,6,2020-10-21 18:12:55.376
7,4,8,8,9,1,4,1,4,2,8,2,6,2020-10-21 18:12:55.383
6,6,6,6,6,6,8,8,1,6,1,8,2,1,6,2020-10-21 18:12:55.389
6,4,6,4,6,9,2,8,2,4,1,6,3,2020-10-21 18:12:55.395
6,8,6,2,5,2,8,4,2,8,2,4,2,4,3,2,2020-10-21 18:12:55.402
6,2,5,8,4,2,6,8,2,2,2,4,2,4,3,2,2020-10-21 18:12:55.408
5,2,3,6,3,8,6,2,2,2,3,2,2020-10-21 18:12:55.415
4,2,1,4,3,4,5,2,1,8,1,6,1,6,2,2020-10-21 18:12:55.423
3,2,2,1,8,6,4,1,6,1,2,1,1,8,2020-10-21 18:12:55.430
3,8,2,4,1,4,6,4,1,2,1,4,0,4,2,4,2020-10-21 18:12:55.436
4,4,2,2,2,2,6,8,2,1,4,0,6,3,2020-10-21 18:12:55.442
5,2,3,7,2,2,8,1,4,0,8,3,6,2020-10-21 18:12:55.449
5,6,1,8,3,8,7,6,3,6,1,4,1,4,6,2020-10-21 18:12:55.455
5,6,1,2,5,6,6,3,2,1,1,3,6,2020-10-21 18:12:55.462
5,3,5,4,7,4,2,1,2,1,3,2020-10-21 18:12:55.469
5,4,3,8,6,4,7,2,3,4,1,2,1,2,4,4,2020-10-21 18:12:55.475
7,8,5,6,2,10,6,4,6,1,6,1,8,5,8,2020-10-21 18:12:55.481
10,2,6,2,6,14,5,8,2,2,4,7,2020-10-21 18:12:55.487
13,2,6,8,5,2,17,7,2,2,6,3,7,2020-10-21 18:12:55.494
12,2,5,4,6,2,16,8,6,2,2,4,3,7,2020-10-21 18:12:55.501
12,4,4,8,5,17,2,7,2,4,2,8,5,2020-10-21 18:12:55.508
10,6,3,8,5,14,4,5,8,2,2,2,3,6,2020-10-21 18:12:55.515
10,8,2,8,7,14,4,8,1,6,1,6,3,8,2020-10-21 18:12:55.521
10,2,4,6,4,11,3,2,1,8,1,8,6,2020-10-21 18:12:55.527
12,2,2,5,8,10,3,4,2,2,2,6,6,4,2020-10-21 18:12:55.533
11,3,5,2,9,2,6,2,2,2,8,6,6,2020-10-21 18:12:55.539
10,2,2,8,5,4,7,4,2,4,2,2,8,6,2,2020-10-21 18:12:55.545
7,4,2,6,3,6,3,4,2,1,8,2,8,4,2020-10-21 18:12:55.552
6,3,6,5,8,4,2,2,2,1,8,1,8,3,2,2020-10-21 18:12:55.558
5,8,3,2,5,6,3,2,2,1,2,1,6,4,2,2020-10-21 18:12:55.564
7,6,2,6,5,4,2,6,2,6,1,2,2,4,2,2020-10-21 18:12:55.571
8,2,2,8,5,6,3,4,2,2,1,4,2,5,4,2020-10-21 18:12:55.577
8,4,3,2,4,8,3,4,2,2,3,6,8,2020-10-21 18:12:55.583
8,2,1,8,2,6,1,2,1,8,1,8,4,2,6,8,2020-10-21 18:12:55.589
6,8,1,8,2,8,1,1,8,2,2,4,6,5,8,2020-10-21 18:12:55.595
4,4,1,6,3,0,8,1,4,2,2,4,6,2020-10-21 18:12:55.601
3,1,6,2,0,1,2,2,2,4,4,6,2020-10-21 18:12:55.608
3,6,1,8,2,2,0,8,1,6,2,3,3,2,2020-10-21 18:12:55.614
4,2,2,2,4,1,6,2,1,8,2,2,2020-10-21 18:12:55.620
3,8,2,4,4,2,2,1,8,1,6,1,1,8,2020-10-21 18:12:55.630
4,4,3,5,6,2,8,2,1,8,1,1,6,2020-10-21 18:12:55.637
5,3,2,5,4,3,8,2,4,1,8,0,8,1,6,2020-10-21 18:12:55.644
3,4,3,2,5,4,2,1,8,1,6,0,8,1,6,2020-10-21 18:12:55.651
1,8,3,2,4,6,4,6,1,2,1,4,0,8,1,6,2020-10-21 18:12:55.657
2,8,2,6,3,4,6,2,1,4,1,2,1,1,2,2020-10-21 18:12:55.663
2,6,2,2,4,7,4,1,4,1,0,8,0,8,2020-10-21 18:12:55.669
2,4,1,8,3,2,8,2,1,2,1,0,8,1,6,2020-10-21 18:12:55.675
5,8,1,4,3,6,9,8,1,8,0,8,0,6,1,6,2020-10-21 18:12:55.682
6,2,0,8,3,4,9,4,2,4,0,8,0,6,1,2,2020-10-21 18:12:55.689
5,6,2,8,3,7,2,2,2,1,4,0,6,1,6,2020-10-21 18:12:55.701
6,4,4,8,5,2,7,2,8,1,4,0,6,2,2020-10-21 18:12:55.707
7,2,6,8,7,4,6,8,3,4,1,4,0,6,1,4,2020-10-21 18:12:55.714
5,8,8,10,5,6,3,4,1,6,0,6,1,8,2020-10-21 18:12:55.719
6,8,8,10,8,6,6,3,1,4,1,2,4,2020-10-21 18:12:55.725
6,4,6,6,11,2,8,4,3,2,0,6,1,2,2,8,2020-10-21 18:12:55.732
6,6,4,8,9,6,10,2,2,8,0,8,1,8,3,2,2020-10-21 18:12:55.738
7,8,3,8,7,2,11,4,2,2,1,2,4,2,8,2020-10-21 18:12:55.744
7,2,1,8,4,4,10,6,1,6,1,2,6,2,8,2020-10-21 18:12:55.750
6,4,2,2,4,2,11,1,8,1,8,2,6,2,8,2020-10-21 18:12:55.756
6,2,2,8,4,6,10,8,2,2,2,2,2,4,2,6,2020-10-21 18:12:55.762
6,3,4,2,9,2,6,2,2,2,2,2,2020-10-21 18:12:55.769
5,2,2,4,2,6,4,2,8,1,8,1,8,2,2,2020-10-21 18:12:55.775
5,8,2,4,4,6,5,8,3,1,6,1,8,2,2020-10-21 18:12:55.782
5,6,2,8,4,4,4,2,2,4,1,1,2,1,8,2020-10-21 18:12:55.788
4,8,3,3,6,3,2,1,6,0,8,0,8,1,4,2020-10-21 18:12:55.794
4,2,2,6,3,4,1,8,1,4,0,4,0,6,1,4,2020-10-21 18:12:55.801
3,4,2,4,3,6,1,8,1,6,0,4,0,6,2,6,2020-10-21 18:12:55.807
4,8,2,2,3,6,1,8,1,2,0,6,0,4,2,8,2020-10-21 18:12:55.813
6,6,2,6,5,2,2,4,1,6,0,6,0,6,3,2020-10-21 18:12:55.819
8,4,3,6,8,3,2,0,6,0,8,3,4,2020-10-21 18:12:55.825
10,4,7,8,4,1,8,0,8,0,8,3,6,2020-10-21 18:12:55.835
9,4,4,2,7,4,1,4,1,2,0,6,2,6,2020-10-21 18:12:55.841
6,6,4,4,6,4,4,1,6,1,4,0,6,2,2020-10-21 18:12:55.848
4,4,4,5,4,3,2,1,4,1,6,0,4,2,2,2020-10-21 18:12:55.854
2,4,3,4,4,2,8,1,2,1,8,0,4,2,4,2020-10-21 18:12:55.860
0,4,2,8,2,6,2,4,1,2,0,4,2,2020-10-21 18:12:55.866
1,2,8,2,8,3,1,4,1,8,0,6,1,6,2020-10-21 18:12:55.873
1,6,2,8,3,3,6,1,8,1,6,0,8,2,2020-10-21 18:12:55.879
1,6,2,2,3,8,1,8,1,2,1,1,6,2020-10-21 18:12:55.885
1,4,1,4,1,4,3,6,1,8,0,8,1,0,8,2020-10-21 18:12:55.891
1,8,1,1,4,3,8,2,0,8,1,0,8,2020-10-21 18:12:55.898
1,8,0,8,1,6,4,1,8,1,1,1,2020-10-21 18:12:55.904
4,1,4,1,4,3,6,1,2,1,1,4,0,8,2020-10-21 18:12:55.910
6,8,2,4,1,6,3,4,1,1,2,1,8,0,8,2020-10-21 18:12:55.917
6,8,2,4,1,8,3,2,1,1,4,2,1,2,2020-10-21 18:12:55.923
6,2,2,2,1,4,2,6,0,8,1,2,2,2,1,6,2020-10-21 18:12:55.929
5,6,2,1,1,8,1,0,8,2,2,1,8,2020-10-21 18:12:55.935
3,2,1,6,0,8,1,6,1,4,0,6,2,1,8,2020-10-21 18:12:55.941
0,8,1,0,8,1,4,1,6,0,6,1,6,1,4,2020-10-21 18:12:55.948
1,4,1,6,1,2,1,2,1,6,0,4,1,6,1,6,2020-10-21 18:12:55.954
1,6,2,8,1,2,1,6,1,4,0,2,1,4,1,8,2020-10-21 18:12:55.960
1,8,4,1,2,2,2,0,8,0,2,1,4,2,2020-10-21 18:12:55.966
2,4,4,2,4,4,0,4,0,6,1,4,2,6,2020-10-21 18:12:55.974
2,8,4,2,3,4,5,2,0,4,0,8,1,8,3,4,2020-10-21 18:12:55.981
3,4,2,4,4,6,0,4,1,2,2,2,8,2020-10-21 18:12:55.987
2,8,3,4,4,6,6,0,8,1,6,1,8,2,2,2020-10-21 18:12:55.993
2,6,1,8,4,4,7,2,1,2,2,1,6,2,2020-10-21 18:12:55.999
2,2,1,2,3,8,5,6,1,4,1,6,1,2,1,6,2020-10-21 18:12:56.005
2,0,6,2,4,5,4,1,4,1,2,0,6,2,6,2020-10-21 18:12:56.012
3,2,0,1,6,8,1,6,1,6,0,8,4,4,2020-10-21 18:12:56.019
5,2,0,1,7,8,1,6,2,1,6,5,2,2020-10-21 18:12:56.025
7,6,0,8,1,2,8,4,1,6,1,6,1,6,5,6,2020-10-21 18:12:56.033
9,4,1,6,1,4,9,6,1,8,1,6,1,6,5,2,2020-10-21 18:12:56.043
9,6,2,2,10,4,1,8,1,6,1,6,3,4,2020-10-21 18:12:56.051
8,4,2,4,2,6,9,6,1,6,0,8,0,8,2,2,2020-10-21 18:12:56.059
6,6,2,8,3,2,8,1,4,0,4,0,2,2020-10-21 18:12:56.065
5,2,2,3,8,6,8,1,2,0,6,0,2,1,8,2020-10-21 18:12:56.075
3,4,1,6,4,4,5,6,1,0,8,0,4,1,8,2020-10-21 18:12:56.101
3,1,6,4,4,6,1,1,0,8,1,8,2020-10-21 18:12:56.159
2,6,1,6,4,4,6,4,1,1,2,1,2,1,2,2020-10-21 18:12:56.171
3,2,1,4,4,8,7,4,1,4,1,1,4,1,2020-10-21 18:12:56.179
3,1,4,4,7,1,6,1,2,1,2,0,8,2020-10-21 18:12:56.186
2,8,1,4,3,2,6,6,1,8,1,4,1,1,4,2020-10-21 18:12:56.192
3,4,1,6,2,8,5,4,2,1,6,1,2,1,6,2020-10-21 18:12:56.200
4,2,1,2,3,4,2,2,1,4,1,1,8,2020-10-21 18:12:56.206
4,1,2,2,3,1,4,1,4,0,8,1,6,2020-10-21 18:12:56.212
4,0,8,2,4,3,2,1,1,2,0,8,1,4,2020-10-21 18:12:56.219
3,8,1,2,2,2,3,4,1,2,1,2,1,1,2020-10-21 18:12:56.225
3,6,1,2,4,3,1,0,8,0,4,1,2020-10-21 18:12:56.232
3,2,1,4,2,2,6,1,0,8,0,2,1,2020-10-21 18:12:56.238
3,2,2,2,2,4,1,6,0,8,0,4,1,2020-10-21 18:12:56.249
3,2,2,6,2,2,2,2,2,0,8,0,6,1,2020-10-21 18:12:56.255
3,4,2,6,2,4,2,2,2,0,6,0,6,1,2020-10-21 18:12:56.260
3,8,2,4,2,3,2,4,0,6,0,8,0,8,2020-10-21 18:12:56.266
3,8,2,2,1,6,3,2,2,6,0,6,0,8,0,6,2020-10-21 18:12:56.273
4,1,8,1,4,3,4,2,4,0,4,0,6,0,4,2020-10-21 18:12:56.279
4,2,1,4,1,2,3,6,2,2,0,2,0,4,0,2,2020-10-21 18:12:56.285
3,6,1,2,1,3,4,1,8,0,0,2,0,2020-10-21 18:12:56.291
2,4,1,4,1,2,2,1,6,0,0,0,2020-10-21 18:12:56.297
2,1,2,0,8,2,4,1,2,0,2,0,0,4,2020-10-21 18:12:56.303
1,4,1,2,0,8,2,1,0,2,0,0,8,2020-10-21 18:12:56.310
0,8,1,2,0,8,1,6,0,8,0,2,0,1,2,2020-10-21 18:12:56.316
1,1,0,8,1,6,0,8,0,2,0,1,6,2020-10-21 18:12:56.322
2,2,1,0,8,1,6,1,0,2,0,2,4,2020-10-21 18:12:56.328
4,2,1,2,0,8,0,8,1,4,0,2,0,4,2,8,2020-10-21 18:12:56.334
6,4,1,2,0,6,0,6,1,6,0,4,0,8,3,4,2020-10-21 18:12:56.340
6,2,1,2,1,0,6,1,8,1,1,8,3,2,2020-10-21 18:12:56.346
7,1,6,1,2,1,2,1,6,1,6,2,3,2020-10-21 18:12:56.353
6,8,1,8,1,4,1,8,1,2,2,2,2,2,2,8,2020-10-21 18:12:56.359
4,8,2,2,1,6,1,8,0,8,2,2,2,4,2020-10-21 18:12:56.365
4,2,6,1,8,2,0,8,2,1,8,1,8,2020-10-21 18:12:56.372
5,6,3,1,4,2,0,8,1,6,1,2,2020-10-21 18:12:56.378
6,3,1,2,1,4,0,8,1,1,2,2,2020-10-21 18:12:56.385
6,4,3,1,0,8,0,8,0,4,1,1,8,2020-10-21 18:12:56.391
6,8,3,4,1,2,0,8,1,0,4,0,8,1,6,2020-10-21 18:12:56.397
6,3,8,1,4,0,6,0,8,0,2,0,6,1,6,2020-10-21 18:12:56.405
4,6,4,2,2,0,6,0,6,0,2,0,8,1,6,2020-10-21 18:12:56.411
3,4,4,6,2,6,0,6,0,8,0,4,1,1,2,2020-10-21 18:12:56.418
2,2,4,4,2,4,0,4,1,0,6,1,1,2020-10-21 18:12:56.424
1,6,3,8,2,0,4,1,0,8,1,2,1,2020-10-21 18:12:56.430
1,6,2,8,1,8,0,6,1,1,1,2,0,8,2020-10-21 18:12:56.437
2,2,1,8,1,2,0,6,1,1,0,8,1,6,2020-10-21 18:12:56.459
2,8,0,8,5,1,2,1,4,1,8,1,6,2,8,2020-10-21 18:12:56.470
3,4,0,4,9,6,2,1,8,2,6,2,6,4,2020-10-21 18:12:56.476
4,0,14,2,2,8,2,2,3,4,3,6,6,4,2020-10-21 18:12:56.482
7,6,5,4,19,3,8,2,4,3,6,5,4,7,4,2020-10-21 18:12:56.489
7,4,9,4,20,2,4,2,2,4,3,4,6,2,7,6,2020-10-21 18:12:56.495
10,4,16,8,16,8,4,6,2,4,3,5,8,8,8,2020-10-21 18:12:56.505
10,8,17,8,19,4,5,3,2,2,2,6,4,10,2020-10-21 18:12:56.511
11,2,18,8,22,5,4,4,1,4,7,8,4,2020-10-21 18:12:56.519
9,18,8,23,2,6,4,4,2,1,4,6,8,2,2020-10-21 18:12:56.526
10,6,20,2,28,8,4,6,1,8,6,7,6,2020-10-21 18:12:56.533
7,13,4,27,2,7,6,4,2,1,8,6,2,6,2020-10-21 18:12:56.540
6,13,20,4,7,2,3,2,2,5,4,5,8,2020-10-21 18:12:56.546
8,2,19,4,20,9,4,4,3,4,5,4,5,6,2020-10-21 18:12:56.553
11,4,28,4,17,2,8,2,4,3,4,4,8,5,4,2020-10-21 18:12:56.559
14,6,37,4,14,4,7,4,3,4,4,2,4,8,2020-10-21 18:12:56.566
14,6,37,2,17,8,7,4,6,3,6,3,8,4,2,2020-10-21 18:12:56.572
14,6,37,21,2,7,5,2,3,8,3,4,2,8,2020-10-21 18:12:56.578
13,6,38,26,6,8,3,6,2,8,2,2,8,2020-10-21 18:12:56.591
9,2,26,6,23,6,7,2,3,2,2,6,2,2,8,2020-10-21 18:12:56.598
4,8,15,2,20,6,6,4,2,8,2,4,2,3,4,2020-10-21 18:12:56.604
5,6,17,8,17,2,5,8,2,2,1,8,1,6,4,2020-10-21 18:12:56.611
6,4,20,4,13,8,5,2,1,6,1,2,1,2,3,4,2020-10-21 18:12:56.617
6,4,23,2,3,6,1,4,1,6,2,1,6,2,8,2020-10-21 18:12:56.623
7,8,31,4,5,2,1,8,2,2,3,2,2,2,6,2020-10-21 18:12:56.630
7,4,30,2,7,3,4,2,2,3,4,2,4,2,4,2020-10-21 18:12:56.637
7,29,8,8,5,2,2,3,8,2,6,2,4,2020-10-21 18:12:56.643
7,4,28,2,12,2,5,6,2,6,4,2,6,3,2020-10-21 18:12:56.650
6,4,19,2,14,5,8,2,4,3,2,2,3,8,2020-10-21 18:12:56.656
5,6,14,4,16,2,6,2,2,4,2,2,1,4,4,2,2020-10-21 18:12:56.662
6,6,19,18,2,5,4,3,1,8,1,2,4,2020-10-21 18:12:56.672
6,18,4,17,6,4,2,3,4,1,4,1,3,8,2020-10-21 18:12:56.677
6,8,24,2,15,3,8,3,1,1,2,3,6,2020-10-21 18:12:56.683
7,6,30,12,4,3,4,2,6,0,6,1,4,5,4,2020-10-21 18:12:56.690
10,8,29,2,16,6,3,8,2,8,1,6,2,6,7,2,2020-10-21 18:12:56.696
14,28,4,20,8,4,2,3,2,6,3,8,7,6,2020-10-21 18:12:56.703
14,8,33,2,23,6,8,3,6,3,4,6,7,8,2020-10-21 18:12:56.710
13,4,31,2,25,6,9,6,4,6,3,6,5,2,8,2020-10-21 18:12:56.716
12,29,2,28,2,12,4,5,6,4,2,5,8,6,6,2020-10-21 18:12:56.722
8,8,23,8,22,6,12,6,4,8,3,4,6,4,6,2020-10-21 18:12:56.728
6,2,26,2,16,12,4,4,2,2,2,3,8,4,8,2020-10-21 18:12:56.735
6,6,22,15,2,10,8,4,2,2,3,4,5,2020-10-21 18:12:56.741
7,17,8,14,4,9,2,3,8,2,2,3,5,2,2020-10-21 18:12:56.748
7,4,13,6,13,6,7,6,3,6,2,2,2,6,4,6,2020-10-21 18:12:56.754
7,6,16,6,13,6,4,3,6,2,4,2,6,4,6,2020-10-21 18:12:56.759
7,2,11,8,13,4,5,6,3,4,2,2,2,2,5,4,2020-10-21 18:12:56.766
9,4,17,6,14,5,2,3,2,2,6,2,8,5,6,2020-10-21 18:12:56.773
9,16,4,13,2,3,8,2,4,2,2,8,5,8,2020-10-21 18:12:56.779
8,6,15,2,12,4,2,4,1,6,1,4,2,8,6,2,2020-10-21 18:12:56.786
7,6,12,6,12,4,2,2,1,6,1,2,3,2,8,2020-10-21 18:12:56.792
9,6,16,16,2,4,2,6,2,4,6,6,8,2020-10-21 18:12:56.798
7,8,6,16,1,4,2,1,2,3,6,6,2,2020-10-21 18:12:56.805
7,8,2,17,4,1,4,2,1,4,3,2,5,2020-10-21 18:12:56.811
6,4,8,16,8,1,6,1,8,2,2,6,3,8,2020-10-21 18:12:56.817
5,8,7,8,16,2,1,8,1,6,2,6,2,1,6,2020-10-21 18:12:56.824
2,2,2,8,10,4,1,2,0,6,1,6,0,8,1,4,2020-10-21 18:12:56.831
1,6,4,2,6,8,1,0,6,1,4,1,1,4,2020-10-21 18:12:56.837
1,11,6,3,8,1,2,1,1,4,1,2,2,2020-10-21 18:12:56.843
1,18,8,2,8,1,2,1,6,1,1,6,3,2020-10-21 18:12:56.851
3,6,24,6,7,8,3,6,3,4,1,2,2,4,3,2020-10-21 18:12:56.857
4,2,24,2,9,6,4,6,3,6,1,2,2,2,3,2020-10-21 18:12:56.864
4,8,23,8,11,4,5,6,3,8,1,2,2,3,6,2020-10-21 18:12:56.875
7,8,21,2,14,8,6,8,4,1,8,2,2,4,2,2020-10-21 18:12:56.882
10,8,18,6,18,2,8,4,2,2,4,2,4,3,6,2020-10-21 18:12:56.888
9,8,18,6,15,5,6,2,6,1,8,1,8,3,6,2020-10-21 18:12:56.894
10,8,23,6,16,6,5,2,4,2,1,8,5,6,2020-10-21 18:12:56.901
13,8,33,4,23,2,6,2,3,2,3,3,6,8,2020-10-21 18:12:56.907
14,4,39,4,27,6,6,8,3,6,3,2,3,8,6,4,2020-10-21 18:12:56.913
12,2,34,8,24,6,5,6,3,2,6,3,8,6,2,2020-10-21 18:12:56.919
11,2,29,21,6,5,8,3,6,3,2,3,8,6,2020-10-21 18:12:56.925
10,2,23,2,18,6,6,4,2,3,8,3,8,3,8,2020-10-21 18:12:56.933
7,2,12,6,10,6,4,4,3,8,3,6,2,6,1,8,2020-10-21 18:12:56.939
4,2,4,6,2,2,2,8,2,8,1,2,1,2,2020-10-21 18:12:56.945
3,8,2,6,5,8,1,8,2,6,3,0,6,1,2,2020-10-21 18:12:56.951
3,2,3,8,5,6,1,2,2,2,4,0,6,1,2,2020-10-21 18:12:56.957
2,6,5,5,4,0,6,1,4,1,8,0,6,1,2,2020-10-21 18:12:56.963
2,6,2,5,2,0,0,8,1,2,0,6,1,6,2020-10-21 18:12:56.970
2,6,7,4,1,8,1,1,2,1,4,1,1,6,2020-10-21 18:12:56.978
3,4,15,2,2,8,1,2,1,2,1,1,2,1,6,2020-10-21 18:12:56.985
4,8,22,4,4,1,4,1,0,8,1,2,1,8,2020-10-21 18:12:56.992
5,22,6,5,2,4,1,4,0,8,1,2,2,2020-10-21 18:12:57.005
6,22,2,5,2,4,1,6,0,8,1,4,2,2,2020-10-21 18:12:57.014
6,8,22,6,6,3,2,1,8,0,6,1,8,3,2020-10-21 18:12:57.021
7,2,16,6,5,6,4,8,2,6,0,8,2,4,3,2020-10-21 18:12:57.027
5,8,10,6,4,6,5,2,8,0,8,2,4,2,8,2020-10-21 18:12:57.034
5,6,10,8,4,6,4,4,2,4,0,6,2,4,3,8,2020-10-21 18:12:57.041
7,4,22,6,9,2,4,6,2,6,0,8,3,3,4,2020-10-21 18:12:57.066
5,6,24,2,9,2,3,6,2,8,1,2,2,8,3,2020-10-21 18:12:57.078
3,8,25,8,9,2,2,6,3,1,6,2,6,3,4,2020-10-21 18:12:57.089
3,8,27,4,9,8,3,3,8,2,2,3,3,6,2020-10-21 18:12:57.095
4,4,30,4,12,3,8,3,6,2,8,3,2,2,6,2020-10-21 18:12:57.103
2,2,22,8,10,2,4,8,3,3,2,6,3,2020-10-21 18:12:57.110
3,6,19,11,2,4,8,2,2,3,2,2,8,2,4,2020-10-21 18:12:57.118
3,8,16,4,11,2,4,8,1,4,2,8,2,8,1,8,2020-10-21 18:12:57.124
4,13,8,11,2,4,8,0,6,2,4,2,8,2,2,2020-10-21 18:12:57.131
4,8,14,12,6,4,6,1,2,2,3,2,2,6,2020-10-21 18:12:57.137
5,6,14,2,14,4,4,1,4,2,3,6,2,2020-10-21 18:12:57.143
4,4,18,8,13,4,4,1,4,1,2,3,2,4,2020-10-21 18:12:57.150
4,4,22,2,13,8,3,6,1,4,1,2,6,2,8,2020-10-21 18:12:57.157
4,6,21,4,13,2,3,4,1,8,0,8,2,2,2,4,2020-10-21 18:12:57.163
3,6,16,4,9,6,3,2,0,4,1,6,2,2020-10-21 18:12:57.170
2,2,11,9,2,4,1,8,0,1,2,2020-10-21 18:12:57.176
2,6,4,11,2,4,1,8,0,1,1,8,2020-10-21 18:12:57.183
1,8,5,11,8,3,4,1,6,0,2,1,2,1,6,2020-10-21 18:12:57.189
1,4,7,8,13,6,4,2,1,0,4,1,4,1,4,2020-10-21 18:12:57.195
0,8,14,4,15,4,0,4,0,6,1,6,1,8,2020-10-21 18:12:57.201
1,8,17,4,14,8,6,2,1,2,1,2,2,2,2020-10-21 18:12:57.208
2,8,20,4,14,6,8,4,2,1,4,2,4,2,8,2020-10-21 18:12:57.214
3,8,20,2,15,6,9,6,3,1,6,2,6,2,6,2020-10-21 18:12:57.221
3,8,21,6,16,4,8,6,3,1,6,2,4,2,4,2020-10-21 18:12:57.227
4,19,2,17,6,8,6,3,1,6,2,2,1,6,2020-10-21 18:12:57.234
3,18,15,8,6,6,2,4,1,2,1,6,1,8,2020-10-21 18:12:57.240
3,6,18,4,14,4,2,1,8,1,2,1,6,2,2020-10-21 18:12:57.245
4,2,18,8,12,2,1,8,1,2,1,2,1,6,2,6,2020-10-21 18:12:57.252
5,19,6,12,6,2,4,1,6,1,6,2,4,3,2020-10-21 18:12:57.258
5,6,17,12,3,2,2,1,4,2,2,3,4,2020-10-21 18:12:57.264
6,2,17,2,13,3,8,2,1,4,2,2,2,6,2020-10-21 18:12:57.271
5,4,15,12,6,4,6,2,2,1,2,1,8,2,2,2020-10-21 18:12:57.280
5,13,8,12,4,4,8,2,1,2,1,8,2,2020-10-21 18:12:57.286
4,10,4,9,4,3,8,2,0,8,1,2,2020-10-21 18:12:57.293
3,2,10,4,7,4,2,6,2,1,1,2,1,8,2020-10-21 18:12:57.299
3,4,20,8,6,2,2,2,4,1,1,2,1,8,2020-10-21 18:12:57.305
3,4,30,4,11,2,2,2,6,0,8,1,2,2,2020-10-21 18:12:57.312
4,6,29,2,13,4,3,2,3,0,8,0,8,2,6,2020-10-21 18:12:57.318
5,8,29,8,15,4,4,2,8,1,1,2,3,2020-10-21 18:12:57.324
7,30,4,17,4,4,8,2,6,1,2,1,6,3,6,2020-10-21 18:12:57.330
7,2,21,4,16,2,4,8,2,1,6,2,2,3,6,2020-10-21 18:12:57.336
6,4,14,4,13,8,5,2,1,2,2,2,2,2,8,2020-10-21 18:12:57.342
4,18,11,6,4,8,0,6,2,1,8,2,6,2020-10-21 18:12:57.349
3,6,18,6,9,4,4,0,6,2,1,6,3,8,2020-10-21 18:12:57.355
4,8,16,4,7,8,4,2,1,6,2,8,2,5,2020-10-21 18:12:57.360
6,14,2,6,2,4,4,2,6,3,6,2,4,5,8,2020-10-21 18:12:57.367
7,11,6,6,2,3,6,2,8,3,4,2,8,5,8,2020-10-21 18:12:57.373
7,7,4,5,2,3,3,3,2,2,8,5,6,2020-10-21 18:12:57.379
7,2,6,8,7,8,4,6,3,2,3,6,2,8,4,2020-10-21 18:12:57.385
5,8,9,9,8,5,2,2,4,3,2,2,2,2,2,2020-10-21 18:12:57.392
3,6,10,8,9,8,5,2,1,2,2,2,1,2,2,2020-10-21 18:12:57.399
2,6,9,2,9,4,8,1,2,2,1,4,2,6,2020-10-21 18:12:57.406
2,6,9,2,9,2,4,2,1,2,1,8,2,2,6,2020-10-21 18:12:57.412
2,7,4,8,2,3,4,1,2,1,2,1,6,2,6,2020-10-21 18:12:57.419
1,4,5,6,7,2,2,6,1,2,0,6,1,2,2,4,2020-10-21 18:12:57.425
1,8,4,2,6,8,2,2,1,8,0,6,1,4,1,6,2020-10-21 18:12:57.431
2,2,4,6,6,8,2,8,2,2,0,8,1,1,2,2020-10-21 18:12:57.443
3,4,8,8,4,2,2,2,1,0,4,2,2020-10-21 18:12:57.450
4,8,12,11,4,4,4,2,4,1,2,1,1,6,2020-10-21 18:12:57.456
4,6,11,2,11,8,5,6,2,6,1,4,1,2,2,2020-10-21 18:12:57.462
5,8,18,2,16,4,5,6,2,6,1,6,1,2,2,4,2020-10-21 18:12:57.470
5,8,22,6,16,8,5,8,2,4,1,8,1,2,2,4,2020-10-21 18:12:57.476
5,24,16,5,2,2,6,2,1,4,1,4,2020-10-21 18:12:57.485
3,8,19,2,10,6,4,8,2,1,8,0,8,1,6,2020-10-21 18:12:57.491
4,2,19,2,8,2,3,4,1,4,1,6,0,6,1,2,2020-10-21 18:12:57.499
2,8,14,2,4,6,5,2,1,1,4,0,6,0,8,2020-10-21 18:12:57.508
2,6,11,8,5,2,6,8,0,8,1,2,0,6,0,4,2020-10-21 18:12:57.513
2,4,9,4,5,8,8,4,0,6,1,0,6,1,2020-10-21 18:12:57.520
2,4,11,7,4,8,1,4,1,2,1,4,0,8,2020-10-21 18:12:57.526
2,6,13,6,11,8,9,2,1,6,1,1,6,1,2,2020-10-21 18:12:57.533
3,2,11,8,10,6,7,4,1,8,1,2,1,4,1,6,2020-10-21 18:12:57.539
3,8,10,9,4,5,6,2,1,4,1,2,2,2020-10-21 18:12:57.545
4,4,8,2,8,2,3,8,2,2,1,6,1,2,2020-10-21 18:12:57.552
4,6,7,2,9,4,5,4,2,6,2,1,4,2,6,2020-10-21 18:12:57.558
4,6,5,5,6,4,8,3,2,4,1,8,2,8,2020-10-21 18:12:57.571
4,4,4,4,5,8,5,4,3,2,2,4,2,4,3,4,2020-10-21 18:12:57.583
3,6,3,6,7,5,6,2,8,2,4,2,8,3,2,2020-10-21 18:12:57.590
4,3,8,8,6,6,3,2,3,4,2020-10-21 18:12:57.597
7,2,3,2,7,7,2,3,6,2,2,2,4,5,2020-10-21 18:12:57.605
10,4,2,8,8,2,8,4,4,8,2,8,2,4,5,2,2020-10-21 18:12:57.611
12,2,4,9,6,9,6,5,4,2,8,2,2,5,2020-10-21 18:12:57.617
14,6,5,4,10,11,2,6,6,2,8,2,2,5,6,2020-10-21 18:12:57.623
16,8,4,8,10,6,11,4,6,2,3,2,2,5,2020-10-21 18:12:57.630
15,2,6,9,4,10,2,4,6,2,8,3,4,4,2020-10-21 18:12:57.639
13,6,7,2,8,2,9,3,2,6,3,8,4,6,2020-10-21 18:12:57.655
13,4,6,8,6,8,7,8,2,3,4,8,8,2,2020-10-21 18:12:57.666
11,8,8,6,8,12,4,2,8,4,4,6,8,8,6,2020-10-21 18:12:57.674
9,6,12,4,8,8,15,5,5,2,7,8,8,8,2020-10-21 18:12:57.681
9,4,15,4,12,2,18,2,7,2,5,4,7,6,9,6,2020-10-21 18:12:57.692
7,2,15,6,14,4,21,8,8,4,5,6,4,10,4,2020-10-21 18:12:57.698
5,15,8,16,6,25,4,9,6,4,6,5,2,6,2,2020-10-21 18:12:57.706
6,15,6,15,8,21,9,6,3,4,2,8,5,4,2020-10-21 18:12:57.712
5,6,12,2,12,2,22,8,8,2,6,1,8,5,8,2020-10-21 18:12:57.719
4,2,11,11,4,20,4,7,4,1,8,1,6,5,6,2020-10-21 18:12:57.725
4,8,12,6,11,8,17,6,7,8,1,6,2,4,4,2,2020-10-21 18:12:57.730
6,11,4,9,4,17,4,6,4,1,4,2,4,4,6,2020-10-21 18:12:57.737
6,8,4,8,4,17,2,5,6,1,2,6,4,4,2020-10-21 18:12:57.743
5,2,8,6,8,4,11,4,6,1,2,6,3,2020-10-21 18:12:57.751
5,4,6,6,5,6,9,8,5,4,1,1,8,3,2020-10-21 18:12:57.757
6,6,6,4,6,9,4,4,2,1,1,6,4,2,2020-10-21 18:12:57.762
7,2,8,2,6,4,6,4,4,8,1,2,2,4,6,2020-10-21 18:12:57.769
7,2,9,8,7,4,10,2,3,6,0,8,2,6,4,6,2020-10-21 18:12:57.776
8,18,12,8,18,3,8,1,2,4,4,6,2020-10-21 18:12:57.782
8,8,26,2,18,2,25,8,4,1,2,2,2,4,4,2020-10-21 18:12:57.789
9,4,26,2,18,2,26,6,4,4,1,2,1,6,3,8,2020-10-21 18:12:57.794
8,2,28,20,4,32,2,6,4,1,2,0,8,3,8,2020-10-21 18:12:57.802
7,8,30,2,23,6,33,2,9,1,4,0,2,4,2020-10-21 18:12:57.809
6,8,22,2,17,8,27,6,8,8,1,6,0,4,4,2,2020-10-21 18:12:57.817
5,8,14,2,12,22,8,6,1,8,0,6,3,2020-10-21 18:12:57.825
3,4,11,8,12,26,6,8,2,0,6,2,2,2020-10-21 18:12:57.832
2,8,7,6,9,8,26,4,5,8,2,2,0,8,2,8,2020-10-21 18:12:57.839
3,8,3,4,5,4,19,4,4,4,2,8,2,4,2020-10-21 18:12:57.846
4,8,2,2,5,4,17,4,4,3,3,4,6,2020-10-21 18:12:57.854
5,2,1,2,5,8,15,4,4,2,8,3,2,5,4,2020-10-21 18:12:57.859
7,2,1,8,3,6,12,4,2,8,3,2,6,2,2020-10-21 18:12:57.865
9,2,2,4,1,4,9,3,6,2,8,3,2,5,6,2020-10-21 18:12:57.873
9,6,3,1,4,12,8,2,4,2,4,2,2,5,2020-10-21 18:12:57.879
8,6,5,2,8,17,2,6,2,2,1,8,5,2020-10-21 18:12:57.885
8,2,6,8,3,8,20,8,2,8,2,4,2,2,4,6,2020-10-21 18:12:57.895
9,6,2,3,8,21,6,2,2,2,5,4,2020-10-21 18:12:57.910
8,4,5,6,4,8,17,6,6,8,2,2,2,6,6,2,2020-10-21 18:12:57.916
7,8,5,5,8,14,2,7,6,2,2,3,2,7,2020-10-21 18:12:57.921
8,6,3,5,4,10,4,7,2,3,2,6,2,2020-10-21 18:12:57.928
9,4,1,4,3,8,7,6,1,4,2,4,6,2020-10-21 18:12:57.935
8,4,1,2,4,7,2,4,6,1,8,2,8,4,6,2020-10-21 18:12:57.941
8,8,1,3,2,11,5,6,2,2,4,3,2020-10-21 18:12:57.947
8,2,8,3,12,2,5,4,2,2,1,6,1,4,2020-10-21 18:12:57.954
7,2,4,6,2,8,13,4,5,2,2,4,0,8,2,2,2020-10-21 18:12:57.960
6,8,4,4,3,12,4,5,6,2,6,1,4,2,4,2020-10-21 18:12:57.967
6,2,4,6,2,8,9,4,4,2,2,4,1,2,2,6,2020-10-21 18:12:57.974
5,6,4,8,2,6,6,4,2,8,2,2,1,2,8,2020-10-21 18:12:57.980
6,3,2,2,4,5,6,3,6,2,2,1,6,2,8,2020-10-21 18:12:57.987
5,2,2,1,8,4,6,3,6,1,6,1,6,2,2020-10-21 18:12:57.993
4,2,4,2,5,4,3,4,1,4,1,1,6,2020-10-21 18:12:58.000
2,6,3,2,2,4,8,3,6,1,0,8,1,2,2020-10-21 18:12:58.008
2,2,8,2,3,6,3,6,0,8,0,8,1,2020-10-21 18:12:58.014
1,6,2,4,1,2,2,8,2,6,0,4,0,4,1,8,2020-10-21 18:12:58.020
3,1,8,2,6,4,6,3,2,0,8,1,2,6,2020-10-21 18:12:58.029
4,4,1,2,4,6,4,3,8,1,2,1,6,2,8,2020-10-21 18:12:58.036
8,1,2,4,6,7,6,3,4,1,6,1,6,3,2020-10-21 18:12:58.042
10,8,2,5,6,9,4,3,2,1,8,1,4,3,2,2020-10-21 18:12:58.052
11,2,4,5,8,10,4,2,8,1,6,1,2,2,4,2020-10-21 18:12:58.058
10,4,2,4,4,8,8,6,2,2,1,6,1,1,6,2020-10-21 18:12:58.064
9,8,2,4,3,8,6,8,1,6,1,6,0,8,1,4,2020-10-21 18:12:58.072
7,1,8,3,6,5,6,2,1,6,1,2,1,4,2020-10-21 18:12:58.078
3,4,1,4,3,4,5,2,1,2,1,4,1,4,2020-10-21 18:12:58.100
2,4,1,4,4,5,2,2,2,1,2,1,6,1,4,2020-10-21 18:12:58.116
2,1,4,4,6,4,2,1,1,2,2,2,2020-10-21 18:12:58.123
1,4,1,6,3,4,6,4,1,4,1,2,1,3,2020-10-21 18:12:58.130
0,8,1,8,2,8,6,4,0,8,1,4,0,8,3,2020-10-21 18:12:58.142
0,8,2,3,2,6,4,0,6,1,6,1,2,3,2,2020-10-21 18:12:58.150
1,8,2,8,5,6,7,6,0,8,2,1,6,3,2,2020-10-21 18:12:58.158
1,4,2,6,5,6,2,1,1,8,1,6,2,4,2020-10-21 18:12:58.164
1,2,2,2,5,6,1,6,1,2,1,4,1,8,2020-10-21 18:12:58.171
1,2,2,5,8,5,6,2,6,1,1,4,1,8,2020-10-21 18:12:58.177
1,4,1,6,5,6,4,6,3,6,1,2,1,1,6,2020-10-21 18:12:58.184
1,0,8,2,6,2,8,3,6,1,0,6,1,8,2020-10-21 18:12:58.190
1,6,1,2,2,6,3,3,4,1,2,0,8,1,8,2020-10-21 18:12:58.196
2,1,2,3,2,8,3,2,1,2,1,1,6,2020-10-21 18:12:58.203
2,2,1,2,6,2,8,2,6,0,8,1,2,4,2020-10-21 18:12:58.209
3,4,1,4,2,3,2,2,6,1,1,4,2,2,2020-10-21 18:12:58.215
2,8,1,2,2,6,2,8,2,4,1,1,2,2,2020-10-21 18:12:58.221
2,2,1,3,2,2,4,2,2,1,1,2,2020-10-21 18:12:58.227
2,2,1,4,2,8,4,2,8,1,4,1,2,2,2020-10-21 18:12:58.234
2,6,1,4,4,6,4,6,2,6,2,4,1,1,2020-10-21 18:12:58.240
1,4,1,2,5,6,5,2,2,8,2,2,0,4,1,2020-10-21 18:12:58.246
1,6,1,4,5,8,6,2,2,6,2,0,4,1,2020-10-21 18:12:58.252
2,2,1,4,5,2,6,2,4,2,1,1,2,2020-10-21 18:12:58.258
1,8,1,6,5,8,5,4,1,4,1,6,1,0,8,2020-10-21 18:12:58.264
1,1,6,5,6,5,4,1,4,1,1,0,8,2020-10-21 18:12:58.271
0,8,1,2,6,4,5,0,4,1,1,2,0,6,2020-10-21 18:12:58.277
0,6,0,8,7,6,4,6,0,6,1,4,1,4,1,2020-10-21 18:12:58.283
0,4,0,8,8,6,6,4,1,8,2,2,1,4,1,2,2020-10-21 18:12:58.290
0,8,0,4,9,7,3,3,2,1,8,1,8,2020-10-21 18:12:58.295
1,0,6,8,4,8,6,3,6,3,2,2,4,2020-10-21 18:12:58.301
1,2,0,8,7,8,10,2,4,2,2,8,2,2,3,2020-10-21 18:12:58.311
1,8,1,6,6,2,12,5,3,2,2,3,2020-10-21 18:12:58.318
2,2,2,5,6,12,8,4,8,2,6,1,8,2,8,2020-10-21 18:12:58.325
2,2,2,8,4,8,11,3,6,1,8,1,8,2,4,2020-10-21 18:12:58.331
2,2,3,4,4,9,6,3,2,1,6,1,4,2,2020-10-21 18:12:58.337
2,2,4,3,2,8,2,2,8,1,4,1,1,6,2020-10-21 18:12:58.343
1,8,4,3,4,6,6,2,2,0,8,0,8,2,4,2020-10-21 18:12:58.350
3,6,2,3,4,6,2,6,1,4,1,8,3,4,2020-10-21 18:12:58.356
4,2,8,4,3,6,8,4,2,4,2,4,3,8,2020-10-21 18:12:58.370
5,8,8,7,8,8,8,4,2,2,8,3,4,3,8,2020-10-21 18:12:58.376
5,8,2,7,2,7,8,4,2,3,2,3,8,3,8,2020-10-21 18:12:58.383
5,7,6,6,6,6,8,4,2,3,6,4,2,2,6,2020-10-21 18:12:58.389
3,4,4,8,6,2,4,8,3,2,2,8,3,4,2,2020-10-21 18:12:58.397
2,4,2,2,6,4,4,6,4,6,2,6,2,4,1,6,2020-10-21 18:12:58.408
2,1,6,1,8,2,8,5,4,2,2,1,6,1,6,2020-10-21 18:12:58.414
2,4,2,2,2,8,6,4,1,8,1,4,1,8,2020-10-21 18:12:58.425
2,4,2,4,2,2,3,6,6,1,6,1,4,1,8,2020-10-21 18:12:58.436
2,6,3,2,2,4,6,2,7,1,2,1,2,1,2,2020-10-21 18:12:58.447
2,2,3,8,2,7,6,5,0,2,1,2,1,2020-10-21 18:12:58.454
1,6,3,8,5,6,10,2,4,0,4,1,1,2,2020-10-21 18:12:58.461
1,4,3,4,7,2,12,2,3,6,1,8,1,2,1,2,2020-10-21 18:12:58.468
1,6,3,8,8,14,4,3,1,2,1,2,2020-10-21 18:12:58.474
1,4,2,9,2,12,4,4,4,3,2,1,1,2020-10-21 18:12:58.481
1,2,1,10,2,12,4,2,4,2,1,2,1,2020-10-21 18:12:58.487
1,4,0,4,7,6,12,2,4,4,5,1,6,0,8,2020-10-21 18:12:58.494
1,6,1,2,9,8,13,4,4,4,6,1,2,0,6,2020-10-21 18:12:58.502
1,6,2,9,2,14,4,2,3,6,0,8,0,6,2020-10-21 18:12:58.514
1,8,3,9,8,15,4,2,3,8,0,8,0,8,2020-10-21 18:12:58.521
2,3,2,9,6,12,2,4,3,2,0,6,1,2020-10-21 18:12:58.528
2,3,4,8,6,12,8,4,2,2,6,0,2,1,2020-10-21 18:12:58.535
1,6,2,6,4,8,13,4,4,2,0,2,1,2020-10-21 18:12:58.541
1,6,2,2,6,2,10,8,3,6,2,0,6,1,2020-10-21 18:12:58.547
1,6,1,8,7,6,8,6,2,8,2,1,1,2020-10-21 18:12:58.554
1,6,2,2,9,2,9,2,8,2,1,2,1,2020-10-21 18:12:58.560
1,8,2,4,10,8,11,2,4,6,1,8,1,2,1,4,2020-10-21 18:12:58.567
1,8,2,6,12,4,7,8,5,4,2,2,1,8,1,8,2020-10-21 18:12:58.574
2,4,3,11,2,9,2,5,8,2,2,2,1,8,2020-10-21 18:12:58.580
2,6,2,8,12,6,15,2,5,8,1,8,1,8,1,8,2020-10-21 18:12:58.588
2,8,2,6,14,21,2,5,8,1,6,1,4,2,2020-10-21 18:12:58.594
2,6,2,6,13,17,2,4,8,1,8,1,6,1,8,2020-10-21 18:12:58.600
2,6,2,6,12,18,8,4,8,1,4,1,2,1,6,2020-10-21 18:12:58.606
2,1,8,11,8,19,6,5,2,2,0,6,1,8,2020-10-21 18:12:58.612
1,6,1,6,9,6,13,4,8,2,1,2,2020-10-21 18:12:58.618
1,2,1,4,7,4,6,4,4,4,2,1,4,2,2020-10-21 18:12:58.624
1,2,1,2,8,4,4,6,2,8,1,8,1,6,1,8,2020-10-21 18:12:58.631
1,1,9,4,6,2,2,1,6,1,6,1,4,2020-10-21 18:12:58.637
0,8,0,8,9,2,5,3,1,4,1,8,1,4,2020-10-21 18:12:58.643
0,8,1,2,8,6,5,6,3,6,1,4,1,6,1,6,2020-10-21 18:12:58.649
1,1,6,7,4,8,5,1,6,1,4,1,4,2020-10-21 18:12:58.655
1,2,1,4,5,6,9,2,5,4,1,4,1,1,4,2020-10-21 18:12:58.661
1,6,1,2,3,8,7,2,4,8,1,2,0,8,1,6,2020-10-21 18:12:58.668
1,4,1,8,5,8,10,3,6,1,2,0,4,1,4,2020-10-21 18:12:58.674
1,8,1,4,4,8,9,6,3,6,1,6,0,4,1,2020-10-21 18:12:58.680
2,1,4,4,7,4,2,8,1,8,0,4,0,8,2020-10-21 18:12:58.688
1,6,1,5,8,3,4,1,8,0,6,0,8,2020-10-21 18:12:58.694
1,6,1,6,5,2,8,3,8,1,8,0,6,0,8,2020-10-21 18:12:58.700
2,1,2,2,8,5,8,3,6,1,4,0,6,0,8,2020-10-21 18:12:58.707
1,8,1,2,3,2,8,3,6,1,0,4,0,8,2020-10-21 18:12:58.716
1,6,1,2,3,2,8,8,3,2,0,8,0,4,1,2020-10-21 18:12:58.723
2,1,4,2,8,8,2,4,1,2,0,4,0,8,2020-10-21 18:12:58.729
1,6,1,2,2,4,10,8,3,4,2,2,0,4,0,6,2020-10-21 18:12:58.736
1,2,1,4,1,6,12,4,4,6,3,0,4,0,4,2020-10-21 18:12:58.742
0,8,1,2,1,6,10,6,5,8,3,0,6,0,6,2020-10-21 18:12:58.748
0,6,1,2,1,6,10,6,7,6,3,0,6,0,8,2020-10-21 18:12:58.755
0,4,1,2,1,6,10,6,9,4,3,0,6,1,2,2020-10-21 18:12:58.761
0,6,1,2,7,6,9,6,2,4,0,8,1,6,2020-10-21 18:12:58.768
1,0,6,3,4,8,6,2,8,1,2,2020-10-21 18:12:58.774
1,4,0,6,3,2,3,8,7,6,4,1,2,2020-10-21 18:12:58.780
1,6,1,4,6,5,6,8,3,8,1,1,8,2020-10-21 18:12:58.788
1,6,1,4,6,6,2,5,6,3,4,1,2,1,6,2020-10-21 18:12:58.794
1,6,1,4,6,7,4,4,4,3,1,4,1,4,2020-10-21 18:12:58.800
1,4,1,2,4,9,2,4,4,1,6,1,6,1,2,2020-10-21 18:12:58.806
1,2,1,4,3,9,8,5,2,1,1,6,1,2020-10-21 18:12:58.813
1,2,0,8,2,8,13,8,5,8,1,4,1,8,1,2020-10-21 18:12:58.826
1,4,0,6,4,17,8,6,8,2,1,8,1,2020-10-21 18:12:58.833
1,6,0,4,5,2,21,8,7,8,2,6,1,8,1,2020-10-21 18:12:58.839
2,2,0,8,6,4,22,8,8,6,2,8,1,8,1,2020-10-21 18:12:58.845
2,8,1,2,8,25,8,6,2,2,2,1,2,2020-10-21 18:12:58.851
2,8,1,2,7,19,2,7,2,1,6,1,6,1,6,2020-10-21 18:12:58.857
3,2,2,6,8,16,5,8,1,2,1,6,2,2020-10-21 18:12:58.863
3,6,2,8,6,6,12,8,4,4,0,8,1,6,2,4,2020-10-21 18:12:58.870
3,6,3,6,4,12,6,3,2,0,8,1,6,2,4,2020-10-21 18:12:58.876
3,2,6,5,8,10,2,0,8,1,4,2,2,2020-10-21 18:12:58.882
2,8,2,8,6,2,10,2,2,1,1,6,1,8,2020-10-21 18:12:58.888
2,2,2,2,5,8,7,8,2,1,1,4,1,2,2020-10-21 18:12:58.894
1,8,1,4,4,8,5,2,4,1,1,2,0,6,2020-10-21 18:12:58.901
1,4,0,6,3,8,2,2,2,8,1,1,0,6,2020-10-21 18:12:58.906
1,8,0,6,3,2,6,2,4,0,8,1,0,4,2020-10-21 18:12:58.912
1,6,0,8,2,6,3,2,4,0,8,0,8,0,2,2020-10-21 18:12:58.923
1,4,1,2,2,3,4,2,4,0,8,0,6,0,2,2020-10-21 18:12:58.929
1,1,4,2,4,4,2,2,0,8,0,4,1,2020-10-21 18:12:58.935
1,2,3,2,8,4,6,1,4,0,6,0,6,1,2,2020-10-21 18:12:58.940
1,3,2,8,4,2,2,8,0,8,1,1,6,2020-10-21 18:12:58.946
1,4,2,8,2,4,3,8,3,8,0,8,1,6,2,2020-10-21 18:12:58.953
1,8,2,6,2,3,4,4,8,0,8,2,2,3,2,2020-10-21 18:12:58.959
4,2,6,5,8,4,2,4,8,1,4,2,8,3,6,2020-10-21 18:12:58.965
6,8,2,9,4,5,4,5,2,2,3,3,4,2020-10-21 18:12:58.971
6,2,14,6,12,8,6,2,3,6,2,2,2,6,7,4,2020-10-21 18:12:58.978
10,16,8,16,2,7,4,3,6,4,5,11,4,2020-10-21 18:12:58.985
13,8,19,19,6,8,6,3,6,5,8,7,4,14,6,2020-10-21 18:12:58.993
15,6,17,6,18,8,8,6,4,6,7,9,8,14,8,2020-10-21 18:12:58.998
15,6,14,8,17,4,8,2,5,2,6,4,10,17,4,2020-10-21 18:12:59.005
18,15,2,17,2,7,2,5,2,6,6,11,4,15,8,2020-10-21 18:12:59.011
16,8,19,8,17,5,8,3,8,5,10,14,2,2020-10-21 18:12:59.017
15,6,24,4,16,8,4,4,2,4,3,4,8,6,11,2020-10-21 18:12:59.023
12,4,25,8,14,2,4,2,2,2,7,2,10,8,2020-10-21 18:12:59.029
10,8,27,4,12,4,3,4,1,2,4,7,2,9,2,2020-10-21 18:12:59.036
8,6,23,10,2,3,8,1,2,4,6,4,8,2,2020-10-21 18:12:59.041
8,2,18,2,8,6,5,4,2,2,2,8,6,4,7,2,2020-10-21 18:12:59.048
7,8,13,4,7,7,3,4,3,2,6,4,6,4,2020-10-21 18:12:59.054
8,12,2,9,6,3,3,5,6,2,2020-10-21 18:12:59.060
9,19,8,11,4,5,4,3,2,2,8,4,6,6,2020-10-21 18:12:59.066
10,27,4,13,8,4,8,3,4,2,6,4,2,5,2,2020-10-21 18:12:59.073
9,2,35,4,15,6,3,2,4,2,3,5,2,2020-10-21 18:12:59.079
8,8,37,14,8,2,2,2,1,8,3,8,4,8,2020-10-21 18:12:59.085
9,37,13,4,2,4,2,2,2,4,8,3,8,2020-10-21 18:12:59.092
8,6,29,4,11,4,3,2,6,3,4,12,2,8,2020-10-21 18:12:59.097
8,4,22,4,9,4,3,8,3,3,6,12,1,8,2020-10-21 18:12:59.103
8,2,15,4,7,4,4,6,3,4,3,8,12,1,2020-10-21 18:12:59.109
7,2,12,2,6,8,4,2,8,4,6,11,2,2,2020-10-21 18:12:59.115
7,10,2,5,6,3,6,2,6,4,8,8,4,3,2020-10-21 18:12:59.124
6,8,8,2,4,4,3,2,2,4,5,5,6,4,2020-10-21 18:12:59.130
6,4,8,4,3,2,4,2,2,6,2,7,8,5,2020-10-21 18:12:59.136
6,8,6,1,6,1,6,2,7,4,10,5,2020-10-21 18:12:59.142
4,8,11,2,4,1,8,1,6,6,2,9,2,5,2020-10-21 18:12:59.148
3,6,13,4,3,2,2,1,2,5,8,4,7,2020-10-21 18:12:59.154
4,2,20,4,2,8,1,6,3,6,8,9,2020-10-21 18:12:59.160
4,8,23,8,5,3,8,2,2,6,6,10,4,2020-10-21 18:12:59.166
5,6,26,2,6,4,4,1,8,0,4,16,10,8,2020-10-21 18:12:59.172
7,28,4,6,4,4,2,0,8,16,8,11,2,2020-10-21 18:12:59.178
8,4,30,6,6,4,4,2,2,1,2,17,6,9,6,2020-10-21 18:12:59.184
8,28,6,6,4,3,4,1,6,1,8,18,6,6,2020-10-21 18:12:59.191
7,27,8,7,4,2,4,0,8,2,17,8,4,2,2020-10-21 18:12:59.197
5,8,28,4,8,2,2,0,6,2,2,6,8,4,8,2020-10-21 18:12:59.203
6,6,29,10,4,2,4,1,2,1,8,7,2,5,4,2020-10-21 18:12:59.209
7,4,29,6,12,8,2,6,1,8,1,4,7,6,4,4,2020-10-21 18:12:59.215
6,2,25,2,11,8,2,4,2,4,1,8,8,4,8,2020-10-21 18:12:59.221
5,6,19,6,9,8,2,6,3,2,2,6,9,4,8,2020-10-21 18:12:59.228
6,8,21,2,12,6,3,3,4,4,11,8,3,2020-10-21 18:12:59.234
5,2,17,4,9,2,8,2,8,5,13,2,1,2,2020-10-21 18:12:59.241
3,6,13,6,5,4,2,6,2,2,6,14,6,1,2020-10-21 18:12:59.254
4,14,8,5,2,2,8,1,6,6,2,16,0,8,2020-10-21 18:12:59.260
4,6,15,2,5,6,2,8,1,6,2,14,8,1,2020-10-21 18:12:59.266
3,4,8,4,1,2,2,6,1,5,6,11,8,1,4,2020-10-21 18:12:59.272
3,4,7,2,4,2,4,1,2,4,6,8,8,1,8,2020-10-21 18:12:59.278
3,4,5,6,3,6,2,2,1,4,3,6,5,8,1,8,2020-10-21 18:12:59.284
2,8,7,4,2,2,2,2,8,3,8,2,4,2020-10-21 18:12:59.290
2,2,9,2,5,2,2,3,4,3,2,3,2020-10-21 18:12:59.296
1,6,11,4,6,1,8,2,4,2,6,2,6,2020-10-21 18:12:59.302
1,6,11,2,6,8,2,4,2,2,3,8,2,2,2,2,2020-10-21 18:12:59.308
1,6,11,7,6,3,2,4,3,6,1,8,2,4,2020-10-21 18:12:59.314
2,4,10,4,8,2,2,6,1,8,3,4,1,6,2,2020-10-21 18:12:59.320
3,9,8,7,6,2,6,1,8,2,2,6,1,6,2020-10-21 18:12:59.331
3,6,9,2,7,2,6,1,8,0,6,3,6,1,8,2020-10-21 18:12:59.337
3,8,11,6,6,1,8,1,4,0,8,4,8,2,6,2020-10-21 18:12:59.343
3,8,12,2,4,2,0,8,1,4,1,6,6,3,2,2020-10-21 18:12:59.349
3,6,10,4,3,4,0,6,1,8,2,2,6,3,2,2020-10-21 18:12:59.356
3,2,8,8,2,8,0,6,2,2,2,6,5,2,2,8,2020-10-21 18:12:59.362
2,6,6,4,2,2,0,4,2,6,2,6,4,6,2,4,2020-10-21 18:12:59.368
2,4,1,6,0,2,3,2,6,4,1,4,2020-10-21 18:12:59.374
1,6,3,4,1,8,0,2,3,2,3,4,1,4,2020-10-21 18:12:59.380
2,2,4,1,8,1,2,3,4,2,8,5,2,2020-10-21 18:12:59.386
2,6,1,2,1,6,2,3,8,3,8,7,4,2,8,2020-10-21 18:12:59.393
3,1,2,2,2,2,3,6,3,6,7,6,3,6,2020-10-21 18:12:59.399
3,4,1,2,2,4,2,4,3,4,3,4,7,8,4,4,2020-10-21 18:12:59.405
3,4,1,2,2,2,4,3,2,3,4,7,2,4,2,2020-10-21 18:12:59.411
2,6,1,2,2,2,1,4,2,6,2,4,4,3,2,2020-10-21 18:12:59.417
2,2,4,3,6,1,2,0,8,2,2,4,2020-10-21 18:12:59.423
1,8,3,3,4,1,1,8,1,8,1,6,1,6,2020-10-21 18:12:59.429
1,6,3,6,3,2,1,1,6,2,8,1,2,0,8,2020-10-21 18:12:59.435
1,8,4,4,3,6,1,2,1,4,3,6,1,6,0,2020-10-21 18:12:59.441
1,8,4,6,3,6,1,2,1,4,4,1,8,0,2020-10-21 18:12:59.447
1,6,3,8,2,2,0,6,1,4,4,2,1,6,0,2,2020-10-21 18:12:59.454
1,6,3,4,2,2,1,1,4,5,2,2,2,0,4,2020-10-21 18:12:59.459
1,4,2,6,1,6,1,2,1,6,5,1,8,0,6,2020-10-21 18:12:59.465
1,2,1,8,1,1,4,1,8,4,8,1,4,0,8,2020-10-21 18:12:59.470
1,2,1,6,0,8,1,8,1,8,5,1,2,1,2,2020-10-21 18:12:59.477
1,4,1,6,1,2,2,2,1,8,5,4,1,4,1,4,2020-10-21 18:12:59.482
1,2,1,6,0,8,2,8,2,4,2,1,6,1,6,2020-10-21 18:12:59.489
1,2,2,1,3,6,2,4,2,2,8,1,6,2020-10-21 18:12:59.496
1,2,2,1,2,3,2,1,6,3,4,3,6,1,6,2020-10-21 18:12:59.503
1,2,2,1,4,2,8,1,2,2,6,4,4,2,2020-10-21 18:12:59.510
1,8,1,6,1,3,1,4,2,6,4,8,3,2,2020-10-21 18:12:59.516
3,1,6,1,4,2,6,1,2,3,4,5,6,4,4,2020-10-21 18:12:59.522
4,2,1,6,1,8,2,2,1,4,2,6,4,4,4,2020-10-21 18:12:59.532
4,2,1,4,1,6,2,4,1,6,4,4,6,2,4,4,2020-10-21 18:12:59.539
4,4,1,2,1,8,3,2,1,8,5,2,6,3,8,2020-10-21 18:12:59.544
3,8,1,2,2,3,4,1,4,5,5,8,3,2020-10-21 18:12:59.550
3,1,1,6,3,2,1,2,4,5,8,2,2020-10-21 18:12:59.556
2,0,6,1,2,3,1,6,2,8,5,2,2,4,2020-10-21 18:12:59.562
2,6,1,1,2,3,1,2,2,8,4,8,2,8,2020-10-21 18:12:59.569
3,1,4,0,8,2,4,1,2,2,2,4,4,3,2,2020-10-21 18:12:59.574
3,2,1,6,0,6,1,6,1,1,8,5,4,3,2020-10-21 18:12:59.580
3,2,1,4,0,6,1,1,1,6,5,3,2,2020-10-21 18:12:59.587
3,1,2,0,6,0,8,1,2,1,4,4,6,3,6,2020-10-21 18:12:59.593
3,4,2,4,0,8,0,8,1,8,2,2,6,2,4,2020-10-21 18:12:59.598
3,8,3,6,1,0,8,2,4,3,7,8,4,4,2020-10-21 18:12:59.605
4,4,5,1,1,3,2,3,6,8,4,2,2020-10-21 18:12:59.611
4,6,6,6,0,8,1,3,6,3,8,8,2,3,8,2020-10-21 18:12:59.617
5,2,7,1,2,1,4,3,6,6,7,6,3,2,2020-10-21 18:12:59.623
4,8,5,8,1,6,2,2,4,8,6,6,2,2,6,2020-10-21 18:12:59.630
4,4,4,6,2,2,6,1,8,10,6,4,8,2,2020-10-21 18:12:59.636
3,2,3,4,2,2,6,2,6,11,3,4,2,2020-10-21 18:12:59.643
2,4,2,2,2,2,8,3,8,11,8,2,2,4,2020-10-21 18:12:59.649
2,1,8,2,2,4,3,8,9,2,2,2,2,2020-10-21 18:12:59.662
1,4,2,1,8,2,4,3,8,7,4,2,6,2,2020-10-21 18:12:59.669
0,8,2,2,1,6,2,4,3,8,5,6,3,2,2,8,2020-10-21 18:12:59.675
2,2,3,2,3,4,2,3,8,6,6,4,4,3,6,2020-10-21 18:12:59.681
3,6,4,2,4,4,6,3,8,7,6,5,6,3,2020-10-21 18:12:59.688
3,4,5,5,4,8,2,5,6,7,4,6,6,3,2020-10-21 18:12:59.694
3,4,5,4,6,4,10,7,4,6,4,7,3,2,2020-10-21 18:12:59.700
3,4,5,2,6,9,8,8,6,5,6,6,2,2,4,2020-10-21 18:12:59.706
2,2,4,2,4,4,8,4,8,4,3,6,4,8,1,2,2020-10-21 18:12:59.712
1,4,3,4,2,8,7,2,7,2,3,2,4,2,1,2,2020-10-21 18:12:59.718
1,8,2,8,1,8,5,5,6,3,2,3,2,1,2,2020-10-21 18:12:59.724
2,2,2,2,0,8,2,8,4,3,2,2,2,1,2020-10-21 18:12:59.734
2,6,2,2,1,2,2,6,3,3,2,4,0,8,2020-10-21 18:12:59.740
3,4,3,1,8,2,6,2,4,3,4,2,8,1,6,2020-10-21 18:12:59.746
3,8,3,2,4,2,6,2,6,2,2,2,2,2,2020-10-21 18:12:59.753
4,2,3,2,2,6,3,2,8,2,8,1,8,3,2,2020-10-21 18:12:59.759
4,2,2,8,2,2,3,2,3,4,3,6,1,6,3,4,2020-10-21 18:12:59.764
4,2,3,8,2,5,3,8,5,8,3,8,3,6,2020-10-21 18:12:59.771
3,8,4,1,6,6,6,3,8,7,4,5,8,3,2020-10-21 18:12:59.777
3,6,4,6,1,2,7,3,4,7,6,2,2,4,2020-10-21 18:12:59.783
3,2,4,2,1,2,8,4,3,6,2,6,6,1,4,2020-10-21 18:12:59.791
3,2,4,4,1,8,10,2,2,5,2,7,1,4,2020-10-21 18:12:59.796
3,2,4,4,2,10,2,1,8,3,2,4,8,1,2,2020-10-21 18:12:59.802
2,8,3,4,2,8,10,1,6,1,8,3,4,1,2,2020-10-21 18:12:59.810
2,2,2,6,3,6,10,8,2,2,4,4,1,2,2020-10-21 18:12:59.816
1,8,2,8,4,10,6,2,4,3,4,4,6,1,2,2020-10-21 18:12:59.821
1,6,2,6,4,4,11,2,3,2,4,4,6,1,2020-10-21 18:12:59.828
1,4,1,2,5,11,6,3,8,4,2,4,8,1,2,2020-10-21 18:12:59.835
2,4,1,8,4,6,10,2,3,6,3,4,3,8,1,4,2020-10-21 18:12:59.842
2,4,2,2,4,6,8,6,3,2,6,2,8,1,6,2020-10-21 18:12:59.848
2,4,2,6,4,6,7,2,4,1,8,1,8,1,4,2020-10-21 18:12:59.855
2,2,3,5,2,5,2,2,6,2,4,1,8,2,2020-10-21 18:12:59.861
2,6,3,6,4,2,2,6,1,8,2,2,1,8,2,4,2020-10-21 18:12:59.869
2,2,3,2,3,6,2,2,1,6,2,4,2,2,2,8,2020-10-21 18:12:59.883
2,8,3,2,6,2,1,8,2,6,2,6,2,8,2020-10-21 18:12:59.895
3,4,2,6,2,2,8,2,2,2,4,3,3,2020-10-21 18:12:59.906
3,6,2,2,0,6,4,2,2,1,4,2,4,2,4,2020-10-21 18:12:59.913
2,8,2,4,2,4,2,2,2,1,4,1,8,1,8,2020-10-21 18:12:59.920
2,2,6,3,4,4,4,2,2,1,4,1,2,1,2,2020-10-21 18:12:59.927
1,2,2,8,4,8,4,6,2,2,1,4,0,6,1,4,2020-10-21 18:12:59.938
1,6,3,4,5,2,4,2,2,2,0,8,2,6,2020-10-21 18:12:59.944
1,4,3,6,5,2,2,1,2,2,1,4,2,8,2020-10-21 18:12:59.955
2,4,2,8,3,8,1,8,1,2,2,1,6,3,2,2020-10-21 18:12:59.961
2,6,2,2,2,8,1,6,1,2,2,3,6,2020-10-21 18:12:59.967
2,8,1,6,1,8,1,4,0,8,2,2,4,3,2020-10-21 18:12:59.976
2,1,4,1,4,1,6,0,6,1,4,1,6,1,8,2020-10-21 18:12:59.983
3,4,4,4,2,2,6,0,8,1,6,1,2,1,6,2020-10-21 18:13:00.010
4,7,6,2,8,3,6,0,8,1,8,1,2,1,2,2020-10-21 18:13:00.045
5,4,10,6,3,2,4,6,1,2,1,8,1,1,2,2020-10-21 18:13:00.053
7,13,4,3,2,5,6,1,6,2,0,8,1,8,2020-10-21 18:13:00.059
8,4,15,6,3,2,6,2,2,4,1,2,2020-10-21 18:13:00.066
7,2,14,6,3,2,6,4,2,2,6,0,8,2,2,2020-10-21 18:13:00.073
6,11,8,2,4,6,2,2,8,2,8,0,8,2,4,2020-10-21 18:13:00.079
4,8,9,1,6,6,3,6,3,0,8,2,2,2020-10-21 18:13:00.087
3,2,6,8,2,2,5,4,2,2,6,1,2,4,2020-10-21 18:13:00.121
2,4,4,2,6,5,6,4,2,2,0,8,2,8,2020-10-21 18:13:00.129
3,2,2,6,5,8,4,2,1,4,0,8,3,2,2020-10-21 18:13:00.140
3,6,1,8,3,4,6,6,3,4,0,8,0,6,2,8,2020-10-21 18:13:00.146
3,8,1,6,4,5,6,2,4,1,0,8,2,4,2020-10-21 18:13:00.154
4,2,1,3,6,5,4,1,6,1,6,0,8,2,2,2020-10-21 18:13:00.161
3,8,1,8,3,2,4,4,3,4,2,1,6,2,2020-10-21 18:13:00.168
3,4,2,6,2,8,3,4,4,4,6,8,2,4,1,4,2020-10-21 18:13:00.175
2,6,3,4,2,2,1,6,4,2,6,8,2,8,2,2020-10-21 18:13:00.182
2,6,4,3,6,6,8,2,11,4,3,6,2,2020-10-21 18:13:00.190
2,2,4,2,3,6,10,4,12,4,15,6,5,1,4,2020-10-21 18:13:00.196
1,8,3,6,4,4,13,4,15,18,6,0,8,2020-10-21 18:13:00.202
1,4,3,5,2,16,4,17,6,20,4,7,1,2020-10-21 18:13:00.208
1,6,3,6,18,2,19,2,26,4,8,6,0,8,2020-10-21 18:13:00.214
1,4,3,2,5,6,15,16,8,27,9,4,1,6,2020-10-21 18:13:00.228
2,8,3,4,4,6,11,4,13,4,22,4,10,8,2,4,2020-10-21 18:13:00.233
4,2,3,6,3,6,7,8,10,17,8,12,2,2,6,2020-10-21 18:13:00.239
4,4,3,8,2,4,5,8,8,16,6,11,4,2,4,2020-10-21 18:13:00.245
4,4,3,4,1,4,4,2,10,2,14,4,10,4,2,6,2020-10-21 18:13:00.251
4,6,3,4,1,2,2,6,8,8,11,8,9,6,2,6,2020-10-21 18:13:00.257
3,6,3,4,1,2,4,6,21,6,30,10,6,2,6,2020-10-21 18:13:00.263
2,6,3,4,1,2,6,6,34,4,48,2,11,6,3,2,2020-10-21 18:13:00.269
2,8,3,4,1,4,7,8,45,63,14,8,4,2020-10-21 18:13:00.275
3,2,3,6,2,4,8,6,48,2,63,2,14,4,4,2020-10-21 18:13:00.281
3,4,3,4,2,6,10,2,54,2,63,8,13,4,2,2020-10-21 18:13:00.287
3,6,3,8,3,8,2,40,4,46,2,10,8,4,2020-10-21 18:13:00.293
3,8,4,2,3,4,6,2,26,6,28,6,8,6,3,8,2020-10-21 18:13:00.299
3,6,3,6,4,6,4,6,18,20,2,7,4,3,4,2020-10-21 18:13:00.305
3,2,2,8,5,3,4,16,8,26,4,10,2,3,2,2020-10-21 18:13:00.311
2,6,3,2,4,6,2,2,11,6,23,13,8,2,6,2020-10-21 18:13:00.317
2,6,4,5,2,4,12,4,24,12,2,2,2020-10-21 18:13:00.324
2,6,4,8,5,4,2,6,13,2,25,10,6,1,4,2020-10-21 18:13:00.330
3,6,6,5,2,4,8,8,16,8,8,1,2020-10-21 18:13:00.340
3,6,6,4,2,4,4,7,4,7,4,0,4,2020-10-21 18:13:00.345
3,2,5,4,3,8,2,4,3,2,7,6,6,0,6,2020-10-21 18:13:00.352
2,8,4,4,3,4,2,6,2,4,7,7,4,1,2020-10-21 18:13:00.358
2,6,4,8,3,2,6,1,6,5,9,1,4,2020-10-21 18:13:00.364
2,4,5,2,2,6,2,6,0,8,3,10,6,1,6,2020-10-21 18:13:00.370
2,6,7,4,2,8,2,4,0,4,2,2,10,2,2,2020-10-21 18:13:00.376
2,6,10,2,2,4,1,8,0,2,4,6,8,2,2,2020-10-21 18:13:00.382
3,14,6,3,6,1,4,1,2,3,8,6,2,2,2,2020-10-21 18:13:00.389
3,2,17,6,4,8,1,2,2,2,4,4,4,2,4,2,2020-10-21 18:13:00.395
8,4,31,4,9,6,2,6,2,6,6,2,2,2,6,2,2020-10-21 18:13:00.403
13,6,45,2,14,4,4,3,8,0,2,6,2020-10-21 18:13:00.411
14,2,47,15,4,4,8,3,6,7,1,6,2020-10-21 18:13:00.416
14,4,46,4,14,6,5,4,3,4,8,6,2,5,8,2020-10-21 18:13:00.423
13,8,45,6,13,5,4,2,6,9,8,3,3,6,2020-10-21 18:13:00.429
8,2,34,7,8,3,8,2,4,9,8,4,2,2020-10-21 18:13:00.436
3,20,8,2,6,2,2,2,4,8,8,4,2,3,4,2020-10-21 18:13:00.441
5,2,18,2,2,6,2,1,8,8,3,8,4,8,2020-10-21 18:13:00.448
7,4,15,6,2,6,1,8,1,2,7,2,3,4,6,4,2020-10-21 18:13:00.454
10,4,13,2,3,4,2,2,1,2,6,8,3,6,8,2020-10-21 18:13:00.460
11,2,13,4,10,2,4,4,1,4,5,8,3,6,6,2020-10-21 18:13:00.466
11,6,15,2,17,6,6,1,4,5,8,3,8,7,2020-10-21 18:13:00.473
11,6,16,2,21,6,2,2,2,7,2,4,7,2,2020-10-21 18:13:00.479
9,6,20,25,8,6,4,2,4,8,9,2,7,4,2020-10-21 18:13:00.485
7,6,23,8,30,6,6,6,2,6,8,8,14,4,8,2,2020-10-21 18:13:00.493
7,6,19,8,24,2,4,2,2,4,8,4,17,2,9,2020-10-21 18:13:00.501
9,2,28,8,22,3,8,3,4,8,8,17,6,8,2,2020-10-21 18:13:00.510
8,6,39,4,21,8,5,6,3,8,7,2,18,2,6,8,2020-10-21 18:13:00.516
8,6,46,4,20,4,5,2,4,5,4,13,6,8,2,2020-10-21 18:13:00.522
10,4,47,8,18,6,5,2,4,2,3,4,10,8,2,2020-10-21 18:13:00.529
12,51,21,4,5,6,4,2,3,8,8,4,8,2,2020-10-21 18:13:00.537
12,41,2,20,4,3,3,4,9,2,8,2020-10-21 18:13:00.546
11,34,6,17,8,2,2,2,6,8,8,6,2020-10-21 18:13:00.553
11,4,28,8,16,1,6,1,8,2,6,7,6,4,2020-10-21 18:13:00.558
10,28,6,14,6,0,8,1,6,2,8,5,5,2,2020-10-21 18:13:00.564
9,29,8,16,6,2,6,3,2,2,4,6,4,2020-10-21 18:13:00.571
8,31,18,6,4,4,4,4,1,6,4,2,3,2020-10-21 18:13:00.577
8,29,21,4,6,6,5,6,1,4,5,8,2,2,2020-10-21 18:13:00.583
6,8,24,2,19,6,7,5,8,3,4,8,8,2,6,2020-10-21 18:13:00.590
6,8,19,19,6,8,6,6,6,4,6,12,2,2,8,2020-10-21 18:13:00.596
5,2,15,6,14,8,7,6,6,2,11,4,3,2,2020-10-21 18:13:00.602
5,2,10,8,12,5,4,5,7,4,10,6,3,6,2020-10-21 18:13:00.609
5,2,6,9,2,3,8,4,8,6,9,8,3,8,2020-10-21 18:13:00.615
7,8,7,2,8,4,3,6,3,8,6,8,7,2,3,2,2020-10-21 18:13:00.622
8,6,11,2,8,4,2,4,3,2,6,2,3,8,3,8,2020-10-21 18:13:00.629
11,15,4,10,4,2,2,2,8,5,4,3,4,2,2020-10-21 18:13:00.636
11,8,21,10,4,2,2,8,5,2,2,4,2020-10-21 18:13:00.642
10,6,21,8,8,1,8,2,6,4,4,1,2,4,4,2020-10-21 18:13:00.648
7,8,26,2,10,2,2,2,2,4,4,6,0,8,4,4,2020-10-21 18:13:00.655
5,6,28,2,9,8,2,4,2,4,4,0,8,4,4,2020-10-21 18:13:00.661
3,4,30,2,9,4,2,6,1,6,4,2,0,8,3,6,2020-10-21 18:13:00.668
2,28,6,10,2,8,1,6,3,2,1,4,3,4,2020-10-21 18:13:00.674
2,6,31,8,13,3,1,8,2,4,2,2,3,2,2020-10-21 18:13:00.681
2,8,24,11,4,4,2,2,8,2,6,2,8,2,4,2020-10-21 18:13:00.695
3,2,16,2,10,8,3,8,2,8,3,2,3,1,6,2020-10-21 18:13:00.702
3,6,8,4,10,2,3,4,2,8,3,8,3,2,1,6,2020-10-21 18:13:00.709
3,2,4,2,8,6,3,2,4,5,2,2,8,1,8,2020-10-21 18:13:00.715
2,6,4,2,7,6,3,2,4,5,8,3,4,2,2020-10-21 18:13:00.722
4,6,8,9,1,8,1,6,5,3,6,2,8,2020-10-21 18:13:00.728
5,2,9,4,9,4,2,2,1,8,3,8,4,2,4,4,2020-10-21 18:13:00.734
6,4,12,6,10,2,3,2,6,3,4,4,8,4,4,2020-10-21 18:13:00.741
6,4,14,4,9,2,3,2,8,2,8,2,4,2,2020-10-21 18:13:00.751
6,6,12,7,6,2,6,2,6,1,4,10,6,3,8,2020-10-21 18:13:00.757
5,4,9,8,5,6,2,2,4,1,8,10,2,3,4,2020-10-21 18:13:00.763
5,8,9,8,7,6,2,6,2,8,2,10,2,2,2020-10-21 18:13:00.769
6,2,9,2,9,2,2,8,2,6,1,4,9,8,2,2020-10-21 18:13:00.777
5,8,8,2,9,3,4,2,6,1,6,6,6,4,6,2020-10-21 18:13:00.782
8,6,6,9,2,4,2,8,2,2,4,6,8,2020-10-21 18:13:00.789
10,2,6,4,10,4,8,3,2,2,2,4,6,9,2020-10-21 18:13:00.795
10,8,4,6,8,4,4,3,2,4,5,9,6,2020-10-21 18:13:00.801
11,4,6,4,7,8,4,4,2,4,11,6,10,8,2020-10-21 18:13:00.807
14,10,6,12,4,4,8,2,2,19,8,7,2,8,2020-10-21 18:13:00.813
11,4,11,4,12,4,6,1,8,19,8,6,8,5,8,2020-10-21 18:13:00.819
9,8,12,4,12,4,4,2,1,4,21,8,7,2,3,6,2020-10-21 18:13:00.825
8,2,13,4,12,8,3,8,1,23,8,7,6,3,4,2020-10-21 18:13:00.831
6,6,10,8,6,2,8,1,15,8,6,8,2,8,2020-10-21 18:13:00.837
5,2,9,4,8,1,8,1,2,8,6,3,4,2020-10-21 18:13:00.842
6,4,12,5,6,1,4,1,4,8,6,6,2,3,4,2020-10-21 18:13:00.849
6,6,14,8,5,6,1,2,1,6,7,2,5,6,3,2,2020-10-21 18:13:00.856
6,8,18,4,5,6,1,1,4,4,8,4,2,2,6,2020-10-21 18:13:00.861
7,21,6,6,1,1,2,4,3,4,2,2020-10-21 18:13:00.868
7,8,26,8,7,8,2,2,1,6,3,6,2,8,2,4,2020-10-21 18:13:00.875
9,6,38,2,10,4,2,8,1,6,3,4,2,6,2,8,2020-10-21 18:13:00.881
11,4,49,6,13,3,4,1,6,3,2,2,4,3,4,2020-10-21 18:13:00.888
13,2,60,2,15,6,4,2,4,3,3,6,2020-10-21 18:13:00.894
14,2,56,8,15,4,6,2,6,4,4,3,2,4,2,2020-10-21 18:13:00.900
12,6,51,4,12,2,3,4,1,8,4,6,3,4,3,8,2020-10-21 18:13:00.907
10,39,8,8,6,2,8,1,4,4,6,3,2,4,2020-10-21 18:13:00.913
7,6,27,8,6,2,2,2,1,2,4,6,4,2,4,2,2020-10-21 18:13:00.923
5,2,15,8,3,8,1,6,1,4,6,5,2,3,8,2020-10-21 18:13:00.933
3,6,16,6,6,2,1,2,1,6,5,4,5,6,4,4,2020-10-21 18:13:00.940
5,13,8,6,2,1,2,1,8,5,2,5,5,2020-10-21 18:13:00.946
6,4,11,6,2,1,2,2,5,4,4,4,2020-10-21 18:13:00.956
6,8,8,6,6,2,1,6,2,4,4,8,6,8,3,2,2020-10-21 18:13:00.962
6,2,6,4,5,2,4,3,5,4,6,2,3,4,2020-10-21 18:13:00.968
5,6,5,4,2,2,3,2,6,5,6,6,6,2,6,2020-10-21 18:13:00.975
3,8,5,6,2,2,3,8,3,2,6,4,7,8,2,2,2020-10-21 18:13:00.981
2,6,8,4,2,4,4,3,6,5,6,8,2,8,2020-10-21 18:13:00.988
2,2,11,2,1,4,3,8,3,6,4,8,4,2,8,2020-10-21 18:13:00.994
2,6,12,4,1,4,3,6,3,2,4,3,4,2,4,2020-10-21 18:13:01.000
3,4,13,2,2,4,2,6,2,8,3,2,2020-10-21 18:13:01.007
4,2,14,2,6,4,4,2,1,6,2,6,1,8,2020-10-21 18:13:01.014
4,4,13,4,5,6,5,2,3,5,2,3,2,1,6,2020-10-21 18:13:01.023
4,4,14,4,7,2,4,8,2,6,6,6,4,1,8,2020-10-21 18:13:01.032
4,6,16,8,9,4,2,4,7,2,4,4,2,4,2020-10-21 18:13:01.042
4,4,19,6,10,2,2,6,2,4,8,2,4,6,3,2020-10-21 18:13:01.051
4,2,22,4,11,4,1,2,2,4,9,2,4,8,2,6,2020-10-21 18:13:01.058
3,2,21,10,0,6,1,2,6,8,6,2,2,2,2020-10-21 18:13:01.064
3,2,20,8,9,6,0,8,1,5,6,5,2,2,4,2020-10-21 18:13:01.071
3,2,19,11,4,6,1,2,5,5,4,2,6,2020-10-21 18:13:01.077
3,2,17,2,12,4,8,4,1,4,4,4,5,6,2,8,2020-10-21 18:13:01.083
3,2,15,4,13,8,12,2,1,6,3,8,5,8,3,8,2020-10-21 18:13:01.090
5,6,17,2,12,13,6,2,4,6,5,2,4,2020-10-21 18:13:01.096
4,8,16,10,6,14,2,2,5,2,6,2,3,6,2020-10-21 18:13:01.102
4,16,4,7,4,11,2,1,6,5,2,6,3,2020-10-21 18:13:01.108
7,4,17,10,2,10,6,2,5,2,5,4,4,8,2020-10-21 18:13:01.114
8,8,17,8,9,8,2,1,8,6,5,6,6,2,2020-10-21 18:13:01.120
8,6,18,11,7,6,1,2,5,6,5,4,7,8,2020-10-21 18:13:01.126
10,6,15,2,12,7,4,1,2,5,4,6,8,2020-10-21 18:13:01.132
13,6,17,6,12,8,7,2,1,6,8,2,5,2,8,4,2020-10-21 18:13:01.139
12,4,19,8,7,6,4,6,1,2,11,4,8,6,6,2020-10-21 18:13:01.144
11,2,18,2,5,4,3,8,2,10,3,8,6,2020-10-21 18:13:01.151
12,8,18,6,7,8,4,2,8,10,4,2,6,6,2020-10-21 18:13:01.160
14,6,22,2,11,2,5,3,8,11,8,1,2,7,4,2020-10-21 18:13:01.174
15,4,20,6,14,8,6,4,4,10,2,1,2,7,2,2020-10-21 18:13:01.180
12,8,20,4,15,5,4,4,2,6,8,1,8,6,8,2020-10-21 18:13:01.186
12,2,23,8,16,2,4,8,3,4,6,4,2,2,5,6,2020-10-21 18:13:01.193
9,6,20,12,2,3,6,3,4,4,2,6,4,2020-10-21 18:13:01.198
7,2,20,4,10,2,2,6,2,4,3,3,8,2,4,2020-10-21 18:13:01.205
4,8,20,8,8,2,1,6,1,8,1,6,5,2,4,2020-10-21 18:13:01.211
5,2,15,8,7,4,1,8,2,2,2,4,6,2,8,2020-10-21 18:13:01.217
5,6,12,4,7,2,8,2,6,2,4,8,2,8,2020-10-21 18:13:01.223
5,2,14,2,7,2,3,4,2,6,2,2,5,2,3,2,2020-10-21 18:13:01.229
4,6,11,8,5,4,3,8,2,8,1,8,4,8,3,2,2020-10-21 18:13:01.235
3,4,14,2,8,4,4,8,3,4,3,2,4,3,2,2020-10-21 18:13:01.241
2,8,20,6,13,6,6,2,3,8,4,6,4,2,3,2,2020-10-21 18:13:01.248
3,6,24,2,16,6,5,2,3,4,4,8,4,6,3,6,2020-10-21 18:13:01.254
5,6,30,4,17,5,2,3,5,8,4,8,4,2020-10-21 18:13:01.260
7,6,36,6,17,4,5,2,2,6,6,8,5,4,8,2020-10-21 18:13:01.265
10,2,38,13,4,6,1,8,6,5,6,4,6,2020-10-21 18:13:01.272
10,2,33,8,7,6,3,4,1,2,6,4,7,3,8,2020-10-21 18:13:01.278
9,4,28,2,4,6,4,2,6,2,8,6,2,6,2020-10-21 18:13:01.284
7,4,20,4,2,3,6,2,8,5,2,10,4,3,2020-10-21 18:13:01.290
4,8,12,4,4,2,3,3,6,6,6,15,6,2,4,2020-10-21 18:13:01.296
2,4,14,8,3,4,2,6,2,6,2,15,2,8,2020-10-21 18:13:01.302
2,6,22,8,3,6,1,6,8,6,4,6,13,6,3,4,2020-10-21 18:13:01.308
5,2,41,7,2,2,8,4,8,13,6,4,2020-10-21 18:13:01.314
5,2,45,4,7,2,1,8,8,6,2,10,8,3,2020-10-21 18:13:01.320
5,8,49,2,6,8,1,8,8,5,2,4,6,2,8,2020-10-21 18:13:01.325
6,6,48,2,7,2,4,5,4,5,2,6,8,3,4,2020-10-21 18:13:01.332
7,6,46,6,8,4,2,6,3,8,4,8,19,4,2020-10-21 18:13:01.338
5,6,37,4,5,8,1,8,4,6,4,8,28,8,4,6,2020-10-21 18:13:01.344
6,2,42,6,8,1,6,4,8,3,6,41,4,5,2020-10-21 18:13:01.350
7,44,9,2,6,5,4,7,6,44,4,5,6,2020-10-21 18:13:01.356
7,4,40,8,11,4,3,4,6,8,12,4,44,8,5,2,2020-10-21 18:13:01.365
7,2,34,6,10,2,4,6,6,13,2,33,8,4,8,2020-10-21 18:13:01.372
7,28,4,9,5,8,5,2,14,22,8,4,6,2020-10-21 18:13:01.377
7,19,4,8,6,8,5,16,8,12,8,5,2,2020-10-21 18:13:01.383
5,6,19,6,5,6,4,12,11,2,5,2020-10-21 18:13:01.391
6,6,17,2,3,5,3,6,6,8,10,4,5,2020-10-21 18:13:01.398
8,19,2,4,4,4,4,4,6,11,5,2020-10-21 18:13:01.404
9,4,20,8,1,8,3,8,5,2,5,2,11,6,4,4,2020-10-21 18:13:01.410
8,2,23,2,4,2,3,4,6,2,2,10,4,3,2,2020-10-21 18:13:01.416
8,2,19,6,6,4,3,2,4,4,1,6,10,4,3,2020-10-21 18:13:01.422
6,2,22,8,7,2,6,3,6,1,4,9,2,6,2020-10-21 18:13:01.429
4,2,21,7,6,4,6,4,1,2,8,4,2,2,2020-10-21 18:13:01.435
2,2,19,2,8,2,6,6,4,4,1,7,8,2,2020-10-21 18:13:01.441
2,2,20,7,6,6,8,4,6,1,4,7,2,2,8,2020-10-21 18:13:01.447
3,6,23,4,8,7,2,4,2,1,2,6,3,4,2020-10-21 18:13:01.453
4,6,21,4,11,7,8,3,8,1,5,4,4,2,2020-10-21 18:13:01.459
5,6,24,4,14,5,8,2,2,0,8,4,4,2,2020-10-21 18:13:01.465
5,8,22,8,15,2,3,8,1,4,2,2,8,4,4,2020-10-21 18:13:01.472
6,4,20,8,14,4,4,1,6,2,8,2,4,5,2020-10-21 18:13:01.478
7,8,21,2,13,4,8,5,6,2,8,2,4,4,2,2020-10-21 18:13:01.484
7,15,4,10,4,4,6,6,6,3,3,4,3,4,2020-10-21 18:13:01.492
6,2,9,6,7,8,4,4,7,6,3,2,4,4,3,4,2020-10-21 18:13:01.499
6,2,8,4,7,4,2,7,8,2,5,2,3,4,2020-10-21 18:13:01.506
6,8,9,5,8,4,6,8,6,3,5,2,8,2020-10-21 18:13:01.513
4,6,3,4,5,2,3,2,5,6,4,6,5,3,6,2020-10-21 18:13:01.518
4,6,4,5,8,2,8,5,6,6,4,4,4,2020-10-21 18:13:01.525
4,6,4,6,6,4,2,4,5,6,7,4,3,4,8,2020-10-21 18:13:01.531
4,8,5,6,6,2,5,2,5,6,7,4,2,2,5,2,2020-10-21 18:13:01.538
4,4,6,8,7,4,2,4,2,8,8,2,6,7,2020-10-21 18:13:01.544
6,7,6,5,8,4,8,4,2,8,5,4,6,2020-10-21 18:13:01.550
6,7,4,6,8,5,8,3,4,7,5,8,5,2020-10-21 18:13:01.557
6,7,2,7,8,6,8,2,6,6,6,2,4,4,2020-10-21 18:13:01.565
5,8,6,6,9,6,4,6,1,8,6,4,6,4,5,2,2020-10-21 18:13:01.572
7,6,7,13,5,1,8,3,6,6,6,2,8,2020-10-21 18:13:01.578
7,7,14,5,6,2,3,6,3,4,3,2,2020-10-21 18:13:01.584
8,8,12,8,5,8,3,3,8,2,6,3,2,2020-10-21 18:13:01.591
8,6,8,6,10,6,7,6,4,4,4,2,4,4,2020-10-21 18:13:01.597
9,2,8,8,6,10,5,6,5,4,3,4,2,2020-10-21 18:13:01.602
7,8,4,4,4,4,13,7,2,6,3,8,4,8,2020-10-21 18:13:01.609
7,4,5,4,5,6,11,8,6,4,6,8,4,5,6,2020-10-21 18:13:01.623
7,2,6,6,4,2,11,2,5,8,7,4,5,6,8,2020-10-21 18:13:01.629
7,4,8,2,3,8,9,5,2,7,6,5,8,5,8,2020-10-21 18:13:01.635
7,4,9,8,4,2,5,6,3,6,6,2,5,6,2020-10-21 18:13:01.641
7,8,13,4,11,3,2,2,2,6,4,2,6,4,2020-10-21 18:13:01.648
8,2,14,4,15,8,4,2,2,2,5,8,5,5,6,2020-10-21 18:13:01.654
6,6,12,4,19,8,5,3,2,7,8,4,7,2,2020-10-21 18:13:01.660
6,4,11,2,23,4,4,3,6,7,8,6,2,9,8,2020-10-21 18:13:01.666
6,4,11,2,25,2,4,4,4,4,9,8,4,11,2,2020-10-21 18:13:01.673
6,9,2,21,3,4,5,9,10,6,10,2020-10-21 18:13:01.678
4,4,6,4,16,8,3,2,4,8,8,9,8,9,8,2020-10-21 18:13:01.684
4,6,6,4,16,2,6,3,4,5,10,7,2,2020-10-21 18:13:01.691
3,4,5,6,16,3,4,2,6,4,7,5,2,2020-10-21 18:13:01.697
4,5,8,15,2,4,8,2,4,5,4,4,4,2,8,2020-10-21 18:13:01.703
3,2,4,6,12,4,6,2,1,8,5,4,1,4,3,2020-10-21 18:13:01.709
3,6,4,2,9,6,6,8,2,6,4,1,4,3,6,2020-10-21 18:13:01.716
5,6,6,6,6,4,6,4,3,2,8,8,1,4,3,6,2020-10-21 18:13:01.722
6,7,6,4,8,6,4,3,2,9,2,1,8,3,2020-10-21 18:13:01.729
4,6,7,6,4,5,8,2,6,7,2,1,8,2,8,2020-10-21 18:13:01.734
4,6,9,5,2,5,2,2,4,6,6,2,2,3,2020-10-21 18:13:01.740
5,2,9,2,6,5,2,2,4,8,3,2,8,2020-10-21 18:13:01.746
4,2,6,6,7,2,6,2,1,4,8,3,8,3,2020-10-21 18:13:01.752
4,4,6,6,2,6,2,1,4,10,3,4,4,2020-10-21 18:13:01.758
4,7,6,7,8,9,4,3,2,9,4,3,8,5,2020-10-21 18:13:01.768
3,6,9,2,9,4,12,6,5,8,8,4,2,5,6,2020-10-21 18:13:01.774
2,6,12,11,4,15,2,6,6,6,2,4,2,5,8,2020-10-21 18:13:01.780
1,6,16,10,6,14,2,7,4,2,3,2,5,6,2020-10-21 18:13:01.786
1,6,15,4,12,4,14,8,7,2,4,6,3,4,6,2020-10-21 18:13:01.793
2,2,12,6,11,6,12,2,5,6,7,6,2,3,6,2020-10-21 18:13:01.799
2,8,9,8,10,8,9,6,4,10,6,1,3,2020-10-21 18:13:01.805
3,9,4,8,4,6,4,2,12,0,6,2,8,2020-10-21 18:13:01.811
3,2,7,8,8,8,6,8,1,2,12,8,1,2,3,6,2020-10-21 18:13:01.817
4,6,8,6,6,9,4,2,4,10,2,2,5,2,2020-10-21 18:13:01.823
6,4,10,8,6,4,8,2,3,4,8,3,8,5,2020-10-21 18:13:01.830
6,12,4,6,6,8,8,3,8,5,3,8,4,8,2020-10-21 18:13:01.835
6,8,10,4,6,8,10,4,3,6,4,4,4,6,2020-10-21 18:13:01.841
7,6,8,4,7,11,2,4,2,2,2,5,3,6,2020-10-21 18:13:01.847
6,6,9,8,8,8,6,4,2,2,6,4,4,1,8,2020-10-21 18:13:01.853
5,9,2,8,8,8,4,4,2,1,8,2,8,1,8,2020-10-21 18:13:01.859
5,6,10,6,8,4,6,4,4,8,1,8,3,2,4,2020-10-21 18:13:01.865
5,2,11,8,8,2,5,8,4,8,2,6,2,4,2,2020-10-21 18:13:01.872
4,4,12,8,6,3,6,6,2,3,6,1,8,2,2020-10-21 18:13:01.878
3,6,11,8,8,2,6,2,3,8,2,2,3,2,2020-10-21 18:13:01.884
4,8,8,8,6,2,2,4,5,3,8,2,4,4,4,2020-10-21 18:13:01.891
6,5,8,4,4,2,8,3,8,3,8,2,6,4,2020-10-21 18:13:01.897
6,2,10,4,6,6,1,8,5,2,7,8,3,6,4,6,2020-10-21 18:13:01.903
6,8,16,8,2,2,4,5,2,11,6,4,6,4,8,2020-10-21 18:13:01.909
8,4,17,6,8,6,2,8,5,6,12,6,5,6,3,8,2020-10-21 18:13:01.915
8,2,19,8,10,2,6,7,4,14,6,6,8,2,8,2020-10-21 18:13:01.922
8,22,11,4,2,4,9,2,16,6,8,3,6,2020-10-21 18:13:01.928
7,8,16,6,9,6,4,8,8,2,12,2,6,4,3,2020-10-21 18:13:01.934
7,4,14,6,8,6,6,7,4,10,5,2,2,8,2020-10-21 18:13:01.941
6,16,6,8,8,7,4,6,2,10,6,4,2,6,2020-10-21 18:13:01.948
4,2,15,7,9,2,5,4,8,8,2,4,3,2,2020-10-21 18:13:01.954
3,4,14,7,4,10,6,3,6,8,1,2,2,6,2020-10-21 18:13:01.960
3,8,14,4,8,4,9,4,3,2,8,8,1,6,3,4,2020-10-21 18:13:01.970
4,4,11,4,8,6,9,4,2,6,7,4,1,6,4,2020-10-21 18:13:01.976
5,6,10,4,8,7,8,2,5,6,1,6,4,6,2020-10-21 18:13:01.982
7,2,13,9,4,5,8,1,6,2,2,5,2020-10-21 18:13:01.988
8,12,4,9,4,5,8,1,6,2,3,5,6,2020-10-21 18:13:01.995
8,11,6,8,2,6,1,2,7,4,3,2,6,6,2020-10-21 18:13:02.001
9,2,10,6,6,2,4,2,1,6,7,2,3,6,7,8,2020-10-21 18:13:02.008
9,8,7,6,5,4,2,7,4,4,7,2,2020-10-21 18:13:02.014
8,4,4,8,3,8,4,2,8,6,4,3,6,6,4,2020-10-21 18:13:02.020
7,8,4,2,3,8,2,5,8,10,6,2,2,5,4,2020-10-21 18:13:02.026
8,3,8,3,4,12,2,8,6,13,6,1,6,4,2020-10-21 18:13:02.033
7,3,6,4,6,18,2,11,2,18,0,8,2,2020-10-21 18:13:02.039
5,6,8,6,5,2,21,6,12,4,17,2,0,6,1,8,2020-10-21 18:13:02.045
7,8,11,8,8,2,21,8,11,6,17,6,1,3,2020-10-21 18:13:02.051
8,13,4,8,16,8,8,8,12,2,1,6,4,2,2020-10-21 18:13:02.058
8,2,15,7,8,11,8,6,6,8,2,2,5,4,2020-10-21 18:13:02.064
8,4,16,6,7,6,6,8,3,2,1,4,2,8,7,4,2020-10-21 18:13:02.070
14,2,25,6,16,8,5,8,2,3,2,2,4,7,4,2020-10-21 18:13:02.077
12,2,22,15,2,10,4,6,3,8,2,2,5,6,2020-10-21 18:13:02.091
