Raw EMG - Pod01,Raw EMG - Pod02,Raw EMG - Pod03,Raw EMG - Pod04,Raw EMG - Pod05,Raw EMG - Pod06,Raw EMG - Pod07,Raw EMG - Pod08,Timestamp
-1,-4,-5,-7,-7,-23,-13,-12,2020-11-12 21:46:45.621
1,5,-17,-5,-4,-2,41,7,2020-11-12 21:46:45.773
1,-3,6,17,13,13,-82,14,2020-11-12 21:46:45.777
1,-3,6,17,13,13,-82,14,2020-11-12 21:46:45.791
-4,-8,14,-15,-10,-9,-29,-26,2020-11-12 21:46:45.796
-4,-8,14,-15,-10,-9,-29,-26,2020-11-12 21:46:45.802
-4,-8,14,-15,-10,-9,-29,-26,2020-11-12 21:46:45.808
5,16,-27,-18,-5,-12,-52,-16,2020-11-12 21:46:45.814
2,25,14,30,29,-10,-29,-8,2020-11-12 21:46:45.821
2,25,14,30,29,-10,-29,-8,2020-11-12 21:46:45.826
-3,6,-7,-24,-35,25,60,-15,2020-11-12 21:46:45.833
0,13,25,-15,-2,2,65,2,2020-11-12 21:46:45.839
0,13,25,-15,-2,2,65,2,2020-11-12 21:46:45.844
0,13,25,-15,-2,2,65,2,2020-11-12 21:46:45.851
-5,-9,-49,11,6,-28,-78,-1,2020-11-12 21:46:45.858
-1,16,-26,33,4,22,92,2,2020-11-12 21:46:45.865
-15,-34,37,-15,-9,5,-80,-22,2020-11-12 21:46:45.871
-1,-10,-21,-6,0,16,-5,-8,2020-11-12 21:46:45.876
-1,-10,-21,-6,0,16,-5,-8,2020-11-12 21:46:45.883
-3,11,18,62,13,-34,16,-6,2020-11-12 21:46:45.889
-3,11,18,62,13,-34,16,-6,2020-11-12 21:46:45.894
-4,-6,-13,-47,-26,-42,-55,-13,2020-11-12 21:46:45.901
-4,-6,-13,-47,-26,-42,-55,-13,2020-11-12 21:46:45.906
-5,-3,-1,-1,14,48,12,-19,2020-11-12 21:46:45.912
-5,-3,-1,-1,14,48,12,-19,2020-11-12 21:46:45.919
8,-11,6,14,20,36,57,23,2020-11-12 21:46:45.925
0,2,0,-12,11,6,-33,-10,2020-11-12 21:46:45.932
11,1,1,-7,22,0,-61,12,2020-11-12 21:46:45.937
11,1,1,-7,22,0,-61,12,2020-11-12 21:46:45.943
29,22,11,-8,-23,2,-13,16,2020-11-12 21:46:45.949
29,22,11,-8,-23,2,-13,16,2020-11-12 21:46:45.954
-10,-16,-7,2,-15,-17,-94,-22,2020-11-12 21:46:45.960
-10,-16,-7,2,-15,-17,-94,-22,2020-11-12 21:46:45.967
-17,-9,0,-5,22,7,28,21,2020-11-12 21:46:45.973
3,-4,-20,-5,18,-34,37,-8,2020-11-12 21:46:45.978
3,-4,-20,-5,18,-34,37,-8,2020-11-12 21:46:45.993
10,9,-2,3,18,55,44,18,2020-11-12 21:46:45.999
10,9,-2,3,18,55,44,18,2020-11-12 21:46:46.005
8,-7,-28,8,-5,-34,-52,5,2020-11-12 21:46:46.011
5,-16,17,-10,-22,85,68,12,2020-11-12 21:46:46.018
5,-16,17,-10,-22,85,68,12,2020-11-12 21:46:46.024
5,-16,17,-10,-22,85,68,12,2020-11-12 21:46:46.030
7,15,27,5,-41,1,-19,-16,2020-11-12 21:46:46.036
-5,7,5,26,-9,-29,25,-3,2020-11-12 21:46:46.042
-5,7,5,26,-9,-29,25,-3,2020-11-12 21:46:46.049
-3,-10,-26,8,2,21,4,12,2020-11-12 21:46:46.055
-3,-10,-26,8,2,21,4,12,2020-11-12 21:46:46.060
-3,-10,-26,8,2,21,4,12,2020-11-12 21:46:46.067
9,9,-51,-26,9,-3,-58,-2,2020-11-12 21:46:46.073
6,42,-32,-5,18,-17,4,-7,2020-11-12 21:46:46.095
-13,0,0,9,0,-6,-13,-9,2020-11-12 21:46:46.101
-13,0,0,9,0,-6,-13,-9,2020-11-12 21:46:46.107
-13,0,0,9,0,-6,-13,-9,2020-11-12 21:46:46.112
-13,-3,24,15,1,-21,-35,-29,2020-11-12 21:46:46.119
-13,-3,24,15,1,-21,-35,-29,2020-11-12 21:46:46.125
-13,-3,24,15,1,-21,-35,-29,2020-11-12 21:46:46.132
-9,-14,10,-5,-5,-35,-80,-41,2020-11-12 21:46:46.137
-9,-14,10,-5,-5,-35,-80,-41,2020-11-12 21:46:46.143
-9,-14,10,-5,-5,-35,-80,-41,2020-11-12 21:46:46.149
-9,-14,10,-5,-5,-35,-80,-41,2020-11-12 21:46:46.155
-3,-11,7,-15,4,44,-20,24,2020-11-12 21:46:46.161
-3,-11,7,-15,4,44,-20,24,2020-11-12 21:46:46.167
-3,-11,7,-15,4,44,-20,24,2020-11-12 21:46:46.173
8,3,4,-1,-7,-3,80,28,2020-11-12 21:46:46.179
8,3,4,-1,-7,-3,80,28,2020-11-12 21:46:46.186
6,-2,10,-1,-1,-97,-91,-10,2020-11-12 21:46:46.200
-5,-11,-3,-17,-3,22,71,-8,2020-11-12 21:46:46.206
11,18,20,-5,17,101,-12,-14,2020-11-12 21:46:46.211
11,18,20,-5,17,101,-12,-14,2020-11-12 21:46:46.218
7,6,-5,-10,8,-38,-75,0,2020-11-12 21:46:46.225
7,6,-5,-10,8,-38,-75,0,2020-11-12 21:46:46.232
-12,13,2,-4,-35,4,-2,4,2020-11-12 21:46:46.238
0,5,9,20,-11,11,36,0,2020-11-12 21:46:46.244
-10,-9,-6,54,29,-8,-1,-2,2020-11-12 21:46:46.250
-10,-9,-6,54,29,-8,-1,-2,2020-11-12 21:46:46.256
-4,-14,-29,-50,-23,-28,0,-3,2020-11-12 21:46:46.261
-4,-14,-29,-50,-23,-28,0,-3,2020-11-12 21:46:46.268
14,-7,-20,-62,-18,-23,28,33,2020-11-12 21:46:46.274
4,-22,7,38,7,13,-4,0,2020-11-12 21:46:46.279
4,-22,7,38,7,13,-4,0,2020-11-12 21:46:46.288
-24,-23,-9,-16,-2,11,-47,-42,2020-11-12 21:46:46.294
8,22,18,-1,0,8,65,19,2020-11-12 21:46:46.301
8,22,18,-1,0,8,65,19,2020-11-12 21:46:46.307
-2,-2,8,11,7,2,68,76,2020-11-12 21:46:46.313
-28,-14,7,17,19,33,25,-33,2020-11-12 21:46:46.321
-28,-14,7,17,19,33,25,-33,2020-11-12 21:46:46.326
-17,-14,-5,-16,-6,-14,47,26,2020-11-12 21:46:46.332
-17,-14,-5,-16,-6,-14,47,26,2020-11-12 21:46:46.338
10,6,4,-8,-31,11,-19,53,2020-11-12 21:46:46.343
10,6,4,-8,-31,11,-19,53,2020-11-12 21:46:46.350
-15,4,11,6,-4,-8,74,-26,2020-11-12 21:46:46.356
-12,-5,-7,-9,-2,-49,-31,-65,2020-11-12 21:46:46.362
-2,-6,10,-14,-36,38,84,53,2020-11-12 21:46:46.368
-2,-6,10,-14,-36,38,84,53,2020-11-12 21:46:46.374
15,7,6,9,9,-14,23,6,2020-11-12 21:46:46.381
15,7,6,9,9,-14,23,6,2020-11-12 21:46:46.387
7,16,3,14,4,-7,-72,-37,2020-11-12 21:46:46.402
16,6,20,-40,-27,53,27,26,2020-11-12 21:46:46.407
-9,0,-8,-27,-16,-7,-42,-27,2020-11-12 21:46:46.413
-3,10,-18,-17,2,0,6,14,2020-11-12 21:46:46.419
-3,10,-18,-17,2,0,6,14,2020-11-12 21:46:46.425
-3,10,-18,-17,2,0,6,14,2020-11-12 21:46:46.432
-6,-7,-6,9,14,10,-16,-21,2020-11-12 21:46:46.437
-6,-7,-6,9,14,10,-16,-21,2020-11-12 21:46:46.442
-6,-7,-6,9,14,10,-16,-21,2020-11-12 21:46:46.449
-10,-10,-1,-2,-6,-35,-56,15,2020-11-12 21:46:46.455
-3,-1,1,-5,-6,-40,52,4,2020-11-12 21:46:46.461
-3,-1,1,-5,-6,-40,52,4,2020-11-12 21:46:46.467
-3,-1,1,-5,-6,-40,52,4,2020-11-12 21:46:46.473
15,41,-8,43,26,25,35,15,2020-11-12 21:46:46.478
15,41,-8,43,26,25,35,15,2020-11-12 21:46:46.485
6,-3,-12,11,43,-5,22,-4,2020-11-12 21:46:46.490
-11,-16,10,-6,-22,-5,-42,-7,2020-11-12 21:46:46.496
-11,-16,10,-6,-22,-5,-42,-7,2020-11-12 21:46:46.503
-11,-16,10,-6,-22,-5,-42,-7,2020-11-12 21:46:46.509
11,10,6,31,45,0,37,10,2020-11-12 21:46:46.516
11,12,-3,13,-18,1,15,-5,2020-11-12 21:46:46.522
11,12,-3,13,-18,1,15,-5,2020-11-12 21:46:46.527
11,12,-3,13,-18,1,15,-5,2020-11-12 21:46:46.533
-3,-12,41,21,10,6,-34,-1,2020-11-12 21:46:46.539
-3,-12,41,21,10,6,-34,-1,2020-11-12 21:46:46.545
7,-6,-15,-36,-10,34,61,4,2020-11-12 21:46:46.552
-12,-17,-32,-43,-17,1,-24,-23,2020-11-12 21:46:46.557
-12,-17,-32,-43,-17,1,-24,-23,2020-11-12 21:46:46.563
-12,-17,-32,-43,-17,1,-24,-23,2020-11-12 21:46:46.570
-1,-3,-27,19,27,10,4,-6,2020-11-12 21:46:46.578
-11,-15,24,9,-3,-111,-33,-5,2020-11-12 21:46:46.585
-11,-15,24,9,-3,-111,-33,-5,2020-11-12 21:46:46.592
2,11,-4,-5,-8,-17,-31,-1,2020-11-12 21:46:46.608
-11,-3,15,7,7,-24,-32,-24,2020-11-12 21:46:46.615
20,17,0,13,14,33,84,43,2020-11-12 21:46:46.623
20,17,0,13,14,33,84,43,2020-11-12 21:46:46.629
13,2,15,3,-32,25,100,18,2020-11-12 21:46:46.636
3,22,12,1,15,11,-32,-30,2020-11-12 21:46:46.642
3,22,12,1,15,11,-32,-30,2020-11-12 21:46:46.658
-8,-17,-17,-7,12,17,46,22,2020-11-12 21:46:46.675
-7,-12,-5,-1,-8,-2,-30,-18,2020-11-12 21:46:46.694
-4,-3,-7,-2,-4,13,-28,38,2020-11-12 21:46:46.714
-8,-23,-12,6,16,29,-25,-5,2020-11-12 21:46:46.739
-9,-34,-6,13,5,14,62,10,2020-11-12 21:46:46.762
-16,-1,-16,-17,-17,-42,-45,10,2020-11-12 21:46:46.786
3,7,0,21,9,2,-29,-34,2020-11-12 21:46:46.818
5,-17,-6,-50,-12,-15,-15,22,2020-11-12 21:46:46.869
-2,-1,-6,-15,15,-32,-45,-24,2020-11-12 21:46:46.891
-3,14,-26,-8,34,48,1,4,2020-11-12 21:46:46.935
6,5,-8,3,-6,-54,-18,5,2020-11-12 21:46:46.976
-2,5,15,17,9,54,97,8,2020-11-12 21:46:47.011
-2,-4,-11,-35,3,19,-46,-5,2020-11-12 21:46:47.050
10,1,-32,-32,13,16,39,29,2020-11-12 21:46:47.102
-6,-4,-4,17,-3,-18,-2,12,2020-11-12 21:46:47.137
-3,-4,12,12,5,17,27,11,2020-11-12 21:46:47.150
6,3,9,11,11,-15,35,-1,2020-11-12 21:46:47.164
-18,-6,8,-5,-18,8,38,-24,2020-11-12 21:46:47.190
-15,-8,-5,-15,-4,-54,-105,-46,2020-11-12 21:46:47.213
13,30,3,-7,5,1,-31,12,2020-11-12 21:46:47.244
13,30,3,-7,5,1,-31,12,2020-11-12 21:46:47.263
4,27,-14,10,6,6,44,16,2020-11-12 21:46:47.304
7,7,-3,-15,6,36,86,32,2020-11-12 21:46:47.314
7,7,-3,-15,6,36,86,32,2020-11-12 21:46:47.330
15,1,8,5,15,90,-2,26,2020-11-12 21:46:47.343
6,16,15,3,-18,26,-2,-19,2020-11-12 21:46:47.354
-20,-6,7,33,2,-1,66,2,2020-11-12 21:46:47.369
-20,-6,7,33,2,-1,66,2,2020-11-12 21:46:47.379
4,4,3,-13,12,41,21,-37,2020-11-12 21:46:47.389
4,4,3,-13,12,41,21,-37,2020-11-12 21:46:47.398
-19,-14,-13,-7,-19,-65,-79,-73,2020-11-12 21:46:47.405
-8,-7,3,-23,-36,-11,5,-36,2020-11-12 21:46:47.413
-9,-28,8,-24,-4,-32,43,13,2020-11-12 21:46:47.422
-9,-28,8,-24,-4,-32,43,13,2020-11-12 21:46:47.429
-6,5,24,6,12,3,-88,-35,2020-11-12 21:46:47.437
-9,-20,-17,-26,-10,-39,-41,8,2020-11-12 21:46:47.443
-9,-20,-17,-26,-10,-39,-41,8,2020-11-12 21:46:47.449
-9,-20,-17,-26,-10,-39,-41,8,2020-11-12 21:46:47.455
2,-6,-13,-72,-2,5,-27,11,2020-11-12 21:46:47.470
-7,-8,-35,-14,9,0,-34,-17,2020-11-12 21:46:47.476
8,-27,-9,33,15,15,1,19,2020-11-12 21:46:47.483
8,-27,-9,33,15,15,1,19,2020-11-12 21:46:47.489
-9,-2,-25,-7,-2,-6,-23,-14,2020-11-12 21:46:47.495
-9,-2,-25,-7,-2,-6,-23,-14,2020-11-12 21:46:47.502
-2,8,-1,27,0,-6,-44,-7,2020-11-12 21:46:47.508
-2,8,-1,27,0,-6,-44,-7,2020-11-12 21:46:47.514
13,29,17,9,0,-9,40,21,2020-11-12 21:46:47.520
13,29,17,9,0,-9,40,21,2020-11-12 21:46:47.529
3,4,8,10,-2,-20,-10,22,2020-11-12 21:46:47.535
-11,0,-8,-8,-5,-14,24,9,2020-11-12 21:46:47.542
-11,0,-8,-8,-5,-14,24,9,2020-11-12 21:46:47.546
-11,0,-8,-8,-5,-14,24,9,2020-11-12 21:46:47.554
-1,2,12,10,16,19,47,-2,2020-11-12 21:46:47.559
13,19,27,15,-16,38,30,2,2020-11-12 21:46:47.566
13,19,27,15,-16,38,30,2,2020-11-12 21:46:47.573
-11,1,-17,-7,6,-54,21,9,2020-11-12 21:46:47.580
-11,1,-17,-7,6,-54,21,9,2020-11-12 21:46:47.587
-1,-7,5,12,5,56,-56,14,2020-11-12 21:46:47.593
-20,-9,4,63,5,-9,-87,-37,2020-11-12 21:46:47.600
-20,-9,4,63,5,-9,-87,-37,2020-11-12 21:46:47.605
-20,-9,4,63,5,-9,-87,-37,2020-11-12 21:46:47.611
0,-4,-8,15,-7,-32,8,12,2020-11-12 21:46:47.618
-3,7,-5,-26,-25,61,52,-14,2020-11-12 21:46:47.624
-3,7,-5,-26,-25,61,52,-14,2020-11-12 21:46:47.629
-3,7,-5,-26,-25,61,52,-14,2020-11-12 21:46:47.636
16,40,-1,-1,44,-30,-33,13,2020-11-12 21:46:47.644
16,40,-1,-1,44,-30,-33,13,2020-11-12 21:46:47.651
-12,-23,-26,-84,-32,-9,-29,-38,2020-11-12 21:46:47.658
-4,-20,0,-50,-12,-6,-94,-13,2020-11-12 21:46:47.674
4,23,71,-23,-20,63,53,-4,2020-11-12 21:46:47.679
-9,-3,-11,-39,-44,-15,17,-5,2020-11-12 21:46:47.686
-9,-3,-11,-39,-44,-15,17,-5,2020-11-12 21:46:47.693
3,4,34,37,21,-21,-46,-10,2020-11-12 21:46:47.700
3,4,34,37,21,-21,-46,-10,2020-11-12 21:46:47.707
3,4,34,37,21,-21,-46,-10,2020-11-12 21:46:47.713
-4,-9,-2,-27,-16,-39,-18,7,2020-11-12 21:46:47.720
14,8,-3,28,42,36,39,26,2020-11-12 21:46:47.727
8,3,-10,15,-14,23,1,58,2020-11-12 21:46:47.735
8,3,-10,15,-14,23,1,58,2020-11-12 21:46:47.742
-5,2,1,-14,-40,-41,-44,-6,2020-11-12 21:46:47.748
-5,2,1,-14,-40,-41,-44,-6,2020-11-12 21:46:47.755
-4,2,-1,28,9,-1,25,-25,2020-11-12 21:46:47.763
-4,2,-1,28,9,-1,25,-25,2020-11-12 21:46:47.771
7,3,2,28,7,-4,-63,2,2020-11-12 21:46:47.778
-28,-22,-14,-7,-30,-36,-26,-53,2020-11-12 21:46:47.802
-9,-8,1,-5,-23,-7,34,5,2020-11-12 21:46:47.807
-9,-8,1,-5,-23,-7,34,5,2020-11-12 21:46:47.813
-9,-8,1,-5,-23,-7,34,5,2020-11-12 21:46:47.821
-13,-6,-16,-38,-6,-33,-55,-36,2020-11-12 21:46:47.828
10,6,-5,-18,15,-1,2,-20,2020-11-12 21:46:47.835
10,8,11,19,17,14,-22,0,2020-11-12 21:46:47.841
10,8,11,19,17,14,-22,0,2020-11-12 21:46:47.849
1,-3,1,-2,-24,-37,-90,-12,2020-11-12 21:46:47.855
-2,-3,0,24,-2,-15,-34,-18,2020-11-12 21:46:47.861
-2,-3,0,24,-2,-15,-34,-18,2020-11-12 21:46:47.877
2,-1,0,-21,-2,-11,-37,-16,2020-11-12 21:46:47.884
50,19,5,-11,-5,16,26,72,2020-11-12 21:46:47.891
50,19,5,-11,-5,16,26,72,2020-11-12 21:46:47.896
-8,-8,-7,2,-10,-54,-27,29,2020-11-12 21:46:47.904
-8,-8,-7,2,-10,-54,-27,29,2020-11-12 21:46:47.911
5,4,1,7,4,-1,9,45,2020-11-12 21:46:47.918
-14,-15,-17,13,25,-17,32,22,2020-11-12 21:46:47.925
-14,-15,-17,13,25,-17,32,22,2020-11-12 21:46:47.933
12,5,-1,-13,-51,24,12,39,2020-11-12 21:46:47.939
0,-2,4,21,10,-30,66,-4,2020-11-12 21:46:47.946
0,-2,4,21,10,-30,66,-4,2020-11-12 21:46:47.953
-4,-4,-3,-7,-22,-87,41,20,2020-11-12 21:46:47.961
10,10,5,7,2,115,-12,-2,2020-11-12 21:46:47.968
-1,-1,-12,-5,-2,-58,1,-11,2020-11-12 21:46:47.974
-1,-1,-12,-5,-2,-58,1,-11,2020-11-12 21:46:47.979
-4,-3,-17,-34,-7,-18,-54,-14,2020-11-12 21:46:47.986
-4,-3,-17,-34,-7,-18,-54,-14,2020-11-12 21:46:47.992
-14,0,24,69,38,25,24,-46,2020-11-12 21:46:48.000
-7,-7,-13,-44,4,5,78,-8,2020-11-12 21:46:48.006
-7,-7,-13,-44,4,5,78,-8,2020-11-12 21:46:48.012
-7,-7,-13,-44,4,5,78,-8,2020-11-12 21:46:48.018
-7,-7,-13,-44,4,5,78,-8,2020-11-12 21:46:48.025
-10,-2,9,11,-2,9,-5,4,2020-11-12 21:46:48.031
5,-5,-11,-19,2,14,37,12,2020-11-12 21:46:48.038
8,18,22,5,-16,-10,-50,-13,2020-11-12 21:46:48.045
8,18,22,5,-16,-10,-50,-13,2020-11-12 21:46:48.053
4,-11,-14,2,23,26,50,22,2020-11-12 21:46:48.059
-8,7,-39,-26,1,-46,24,-21,2020-11-12 21:46:48.066
-8,7,-39,-26,1,-46,24,-21,2020-11-12 21:46:48.079
1,-9,-3,22,-7,-21,53,0,2020-11-12 21:46:48.085
1,-9,-3,22,-7,-21,53,0,2020-11-12 21:46:48.091
1,-12,-25,-83,-22,-43,16,3,2020-11-12 21:46:48.096
4,26,44,83,12,-37,-52,-14,2020-11-12 21:46:48.104
4,26,44,83,12,-37,-52,-14,2020-11-12 21:46:48.109
4,26,44,83,12,-37,-52,-14,2020-11-12 21:46:48.115
8,8,-31,-10,-6,53,-87,-9,2020-11-12 21:46:48.122
-1,-33,-2,12,14,1,-11,1,2020-11-12 21:46:48.127
-1,-33,-2,12,14,1,-11,1,2020-11-12 21:46:48.134
1,0,-13,-14,2,41,-60,-20,2020-11-12 21:46:48.140
1,0,-13,-14,2,41,-60,-20,2020-11-12 21:46:48.145
1,0,-13,-14,2,41,-60,-20,2020-11-12 21:46:48.152
3,-5,-15,-14,-3,32,-3,10,2020-11-12 21:46:48.157
-7,-10,-1,-22,-25,-29,34,30,2020-11-12 21:46:48.163
-7,-10,-1,-22,-25,-29,34,30,2020-11-12 21:46:48.169
-7,-10,-1,-22,-25,-29,34,30,2020-11-12 21:46:48.175
-60,-21,0,7,7,-17,36,-95,2020-11-12 21:46:48.180
-10,-5,-1,-18,2,20,41,-65,2020-11-12 21:46:48.187
-10,-5,-1,-18,2,20,41,-65,2020-11-12 21:46:48.192
-10,-5,-1,-18,2,20,41,-65,2020-11-12 21:46:48.198
-9,2,2,20,13,21,-25,-19,2020-11-12 21:46:48.205
-9,2,2,20,13,21,-25,-19,2020-11-12 21:46:48.210
0,2,-12,-44,-30,-18,-6,16,2020-11-12 21:46:48.217
10,-8,-29,-56,8,-19,-43,24,2020-11-12 21:46:48.223
10,-8,-29,-56,8,-19,-43,24,2020-11-12 21:46:48.229
10,-8,-29,-56,8,-19,-43,24,2020-11-12 21:46:48.236
24,3,53,62,58,-36,-85,18,2020-11-12 21:46:48.241
28,51,-56,-32,19,-14,16,-3,2020-11-12 21:46:48.247
28,51,-56,-32,19,-14,16,-3,2020-11-12 21:46:48.253
23,21,25,23,-66,73,52,10,2020-11-12 21:46:48.259
-25,-10,-8,11,-27,-25,-93,-26,2020-11-12 21:46:48.265
-25,-10,-8,11,-27,-25,-93,-26,2020-11-12 21:46:48.271
-5,6,-2,34,26,66,89,-2,2020-11-12 21:46:48.287
-2,-12,15,-16,-26,18,-44,-6,2020-11-12 21:46:48.293
-4,-26,9,-13,-10,-39,-57,-18,2020-11-12 21:46:48.299
-7,-13,1,4,12,-21,-65,-27,2020-11-12 21:46:48.306
-7,-13,1,4,12,-21,-65,-27,2020-11-12 21:46:48.312
-7,-13,1,4,12,-21,-65,-27,2020-11-12 21:46:48.319
13,7,26,29,27,47,-16,31,2020-11-12 21:46:48.325
13,7,26,29,27,47,-16,31,2020-11-12 21:46:48.331
8,-1,-20,-16,-19,-6,-21,-35,2020-11-12 21:46:48.338
21,16,32,18,11,4,63,-29,2020-11-12 21:46:48.344
21,16,32,18,11,4,63,-29,2020-11-12 21:46:48.350
21,16,32,18,11,4,63,-29,2020-11-12 21:46:48.356
67,37,4,-5,-1,-69,-96,66,2020-11-12 21:46:48.361
20,5,10,16,25,22,38,79,2020-11-12 21:46:48.367
20,5,10,16,25,22,38,79,2020-11-12 21:46:48.373
-12,-4,4,1,-23,-15,11,-12,2020-11-12 21:46:48.379
-12,-4,4,1,-23,-15,11,-12,2020-11-12 21:46:48.386
-12,-4,4,1,-23,-15,11,-12,2020-11-12 21:46:48.391
-15,-8,2,50,19,4,-40,-38,2020-11-12 21:46:48.397
-10,-18,-24,-53,-18,36,33,-4,2020-11-12 21:46:48.404
-10,-18,-24,-53,-18,36,33,-4,2020-11-12 21:46:48.409
-4,-1,-9,-35,23,0,20,12,2020-11-12 21:46:48.415
-4,-1,-9,-35,23,0,20,12,2020-11-12 21:46:48.423
5,5,3,-28,-3,26,24,13,2020-11-12 21:46:48.428
5,5,3,-28,-3,26,24,13,2020-11-12 21:46:48.435
-15,-14,-3,-21,-38,5,6,-16,2020-11-12 21:46:48.440
-15,-14,-3,-21,-38,5,6,-16,2020-11-12 21:46:48.446
-15,-14,-3,-21,-38,5,6,-16,2020-11-12 21:46:48.453
12,17,13,18,6,28,13,5,2020-11-12 21:46:48.458
-10,-2,-8,-33,-4,-15,15,3,2020-11-12 21:46:48.464
-10,-2,-8,-33,-4,-15,15,3,2020-11-12 21:46:48.471
-3,1,-13,-14,13,0,-16,-8,2020-11-12 21:46:48.486
-2,4,16,22,-10,-12,15,3,2020-11-12 21:46:48.491
-2,4,16,22,-10,-12,15,3,2020-11-12 21:46:48.496
-2,4,16,22,-10,-12,15,3,2020-11-12 21:46:48.503
-5,-2,4,37,14,0,38,-14,2020-11-12 21:46:48.509
-8,4,1,14,-7,0,21,20,2020-11-12 21:46:48.514
10,7,-12,-18,28,-64,6,-15,2020-11-12 21:46:48.520
26,5,2,12,9,4,-13,24,2020-11-12 21:46:48.526
26,5,2,12,9,4,-13,24,2020-11-12 21:46:48.532
2,5,-4,2,0,-5,-16,28,2020-11-12 21:46:48.539
-5,-9,12,3,5,0,47,25,2020-11-12 21:46:48.544
-5,-9,12,3,5,0,47,25,2020-11-12 21:46:48.551
-5,-9,12,3,5,0,47,25,2020-11-12 21:46:48.557
-12,-17,2,21,10,1,-35,-18,2020-11-12 21:46:48.563
-12,-17,2,21,10,1,-35,-18,2020-11-12 21:46:48.569
-7,-12,20,-1,1,-8,-28,-30,2020-11-12 21:46:48.576
-13,-3,-12,-6,-26,-2,-8,-24,2020-11-12 21:46:48.582
-13,-3,-12,-6,-26,-2,-8,-24,2020-11-12 21:46:48.588
-13,-3,-12,-6,-26,-2,-8,-24,2020-11-12 21:46:48.594
-7,-11,-17,-13,-8,-2,45,-18,2020-11-12 21:46:48.600
24,13,2,5,13,-2,-3,37,2020-11-12 21:46:48.606
24,13,2,5,13,-2,-3,37,2020-11-12 21:46:48.612
24,13,2,5,13,-2,-3,37,2020-11-12 21:46:48.618
-5,-7,-9,10,-42,-16,-18,4,2020-11-12 21:46:48.624
-5,-7,-9,10,-42,-16,-18,4,2020-11-12 21:46:48.630
3,1,3,1,-19,10,-7,-7,2020-11-12 21:46:48.636
-13,-19,39,25,32,30,6,-12,2020-11-12 21:46:48.642
-13,-19,39,25,32,30,6,-12,2020-11-12 21:46:48.647
-13,-19,39,25,32,30,6,-12,2020-11-12 21:46:48.654
-13,-19,39,25,32,30,6,-12,2020-11-12 21:46:48.659
-13,-19,39,25,32,30,6,-12,2020-11-12 21:46:48.665
-1,9,-7,-35,4,-1,26,7,2020-11-12 21:46:48.673
-1,9,-7,-35,4,-1,26,7,2020-11-12 21:46:48.687
-8,-4,-14,-4,6,6,35,-15,2020-11-12 21:46:48.693
4,6,-18,0,0,-13,-40,-19,2020-11-12 21:46:48.698
3,-31,-19,-8,-5,-6,25,49,2020-11-12 21:46:48.705
3,-31,-19,-8,-5,-6,25,49,2020-11-12 21:46:48.710
3,-31,-19,-8,-5,-6,25,49,2020-11-12 21:46:48.716
-3,3,8,34,7,10,-14,3,2020-11-12 21:46:48.723
10,20,-8,10,6,-3,16,2,2020-11-12 21:46:48.729
10,20,-8,10,6,-3,16,2,2020-11-12 21:46:48.735
8,-22,68,34,13,-1,-17,13,2020-11-12 21:46:48.741
-14,-21,-3,-25,-10,-9,-9,-4,2020-11-12 21:46:48.747
-14,32,38,-15,-14,-6,-29,-82,2020-11-12 21:46:48.753
-14,32,38,-15,-14,-6,-29,-82,2020-11-12 21:46:48.759
8,18,-24,8,32,-6,-39,-18,2020-11-12 21:46:48.765
8,18,-24,8,32,-6,-39,-18,2020-11-12 21:46:48.771
-22,-19,-35,-13,-2,-5,-9,-9,2020-11-12 21:46:48.777
-22,-19,-35,-13,-2,-5,-9,-9,2020-11-12 21:46:48.783
6,7,20,-1,7,-11,-17,-9,2020-11-12 21:46:48.789
6,7,20,-1,7,-11,-17,-9,2020-11-12 21:46:48.795
-5,-13,-19,0,4,7,45,10,2020-11-12 21:46:48.801
17,15,10,7,-18,7,-1,-43,2020-11-12 21:46:48.807
17,15,10,7,-18,7,-1,-43,2020-11-12 21:46:48.813
17,15,10,7,-18,7,-1,-43,2020-11-12 21:46:48.819
6,5,-9,-8,-12,8,-27,55,2020-11-12 21:46:48.825
-8,-6,-9,4,20,12,71,26,2020-11-12 21:46:48.831
-4,1,-10,-4,-32,0,6,-24,2020-11-12 21:46:48.837
4,3,3,-7,-13,-28,-80,-13,2020-11-12 21:46:48.843
4,3,3,-7,-13,-28,-80,-13,2020-11-12 21:46:48.849
4,3,3,-7,-13,-28,-80,-13,2020-11-12 21:46:48.855
15,7,3,6,28,22,16,36,2020-11-12 21:46:48.861
-11,-4,-6,-11,-64,5,102,32,2020-11-12 21:46:48.867
-11,-4,-6,-11,-64,5,102,32,2020-11-12 21:46:48.873
-11,-4,-6,-11,-64,5,102,32,2020-11-12 21:46:48.888
0,6,3,14,38,-10,-71,-43,2020-11-12 21:46:48.893
0,6,3,14,38,-10,-71,-43,2020-11-12 21:46:48.899
-11,-18,8,-2,0,-7,-51,3,2020-11-12 21:46:48.906
-11,-18,8,-2,0,-7,-51,3,2020-11-12 21:46:48.912
-11,-18,8,-2,0,-7,-51,3,2020-11-12 21:46:48.918
14,30,7,-10,-26,-20,-4,2,2020-11-12 21:46:48.924
-15,-16,-22,-20,-32,-12,-31,-28,2020-11-12 21:46:48.947
7,12,3,-4,12,8,-46,2,2020-11-12 21:46:48.953
-2,13,-44,-10,5,-15,6,-8,2020-11-12 21:46:48.958
12,30,-15,6,9,4,34,-4,2020-11-12 21:46:48.964
12,30,-15,6,9,4,34,-4,2020-11-12 21:46:48.970
12,30,-15,6,9,4,34,-4,2020-11-12 21:46:48.976
3,13,73,8,21,-17,8,12,2020-11-12 21:46:48.982
0,15,-8,-2,0,-2,-1,5,2020-11-12 21:46:48.989
0,15,-8,-2,0,-2,-1,5,2020-11-12 21:46:48.995
0,15,-8,-2,0,-2,-1,5,2020-11-12 21:46:49.001
-10,-1,11,1,-7,-6,11,-8,2020-11-12 21:46:49.007
-10,-1,11,1,-7,-6,11,-8,2020-11-12 21:46:49.013
18,-15,-2,1,10,4,-5,19,2020-11-12 21:46:49.020
5,-5,-6,0,-2,16,-50,-25,2020-11-12 21:46:49.026
5,-5,-6,0,-2,16,-50,-25,2020-11-12 21:46:49.032
5,-5,-6,0,-2,16,-50,-25,2020-11-12 21:46:49.038
-2,-10,-7,-2,12,-20,-24,-9,2020-11-12 21:46:49.044
-6,1,12,11,27,7,41,19,2020-11-12 21:46:49.049
-6,1,12,11,27,7,41,19,2020-11-12 21:46:49.056
-4,-9,6,15,29,-10,15,15,2020-11-12 21:46:49.061
-4,-9,6,15,29,-10,15,15,2020-11-12 21:46:49.068
-4,-9,6,15,29,-10,15,15,2020-11-12 21:46:49.074
-1,-1,5,1,-2,-43,-30,-15,2020-11-12 21:46:49.088
-8,-8,-7,-10,-3,-37,6,-3,2020-11-12 21:46:49.094
1,-11,-20,-11,1,15,19,68,2020-11-12 21:46:49.100
15,11,14,1,-4,-11,-36,-19,2020-11-12 21:46:49.106
-11,-19,-4,-1,7,-10,-22,1,2020-11-12 21:46:49.112
-11,-19,-4,-1,7,-10,-22,1,2020-11-12 21:46:49.118
-4,0,7,-16,-5,-15,-55,-12,2020-11-12 21:46:49.124
-4,0,7,-16,-5,-15,-55,-12,2020-11-12 21:46:49.130
6,7,-15,-2,-8,8,6,2,2020-11-12 21:46:49.137
6,7,-15,-2,-8,8,6,2,2020-11-12 21:46:49.142
-5,-8,-12,3,-18,-19,65,-6,2020-11-12 21:46:49.147
-5,-8,-12,3,-18,-19,65,-6,2020-11-12 21:46:49.155
2,-2,-4,20,3,-3,-15,4,2020-11-12 21:46:49.160
-7,-31,-14,6,13,16,24,10,2020-11-12 21:46:49.166
-7,-31,-14,6,13,16,24,10,2020-11-12 21:46:49.173
-7,-31,-14,6,13,16,24,10,2020-11-12 21:46:49.178
2,25,35,10,4,10,15,2,2020-11-12 21:46:49.185
2,25,35,10,4,10,15,2,2020-11-12 21:46:49.191
-3,-10,-5,5,-17,84,28,0,2020-11-12 21:46:49.197
-3,-10,-5,5,-17,84,28,0,2020-11-12 21:46:49.203
-3,-10,-5,5,-17,84,28,0,2020-11-12 21:46:49.209
6,11,5,-2,-11,29,5,12,2020-11-12 21:46:49.215
-22,-17,3,-16,-18,-91,-25,-42,2020-11-12 21:46:49.223
-4,-7,-14,8,3,-10,34,4,2020-11-12 21:46:49.228
-4,-7,-14,8,3,-10,34,4,2020-11-12 21:46:49.235
-4,-7,-14,8,3,-10,34,4,2020-11-12 21:46:49.241
8,7,-3,1,7,6,22,-21,2020-11-12 21:46:49.246
8,7,-3,1,7,6,22,-21,2020-11-12 21:46:49.253
-18,-5,7,-2,11,23,-5,-29,2020-11-12 21:46:49.259
20,4,3,-2,-19,-5,-67,27,2020-11-12 21:46:49.264
20,4,3,-2,-19,-5,-67,27,2020-11-12 21:46:49.270
20,4,3,-2,-19,-5,-67,27,2020-11-12 21:46:49.275
9,8,-4,-2,12,12,31,11,2020-11-12 21:46:49.291
-4,-14,-23,-41,-13,-2,5,5,2020-11-12 21:46:49.297
0,2,9,7,-15,-8,64,39,2020-11-12 21:46:49.304
0,2,9,7,-15,-8,64,39,2020-11-12 21:46:49.309
-7,28,35,15,7,10,-17,-3,2020-11-12 21:46:49.315
-7,28,35,15,7,10,-17,-3,2020-11-12 21:46:49.323
-13,-6,6,18,-2,4,-93,-74,2020-11-12 21:46:49.328
-13,-6,6,18,-2,4,-93,-74,2020-11-12 21:46:49.335
-13,-6,6,18,-2,4,-93,-74,2020-11-12 21:46:49.340
-13,-6,6,18,-2,4,-93,-74,2020-11-12 21:46:49.346
5,3,-7,-48,27,-9,-47,-4,2020-11-12 21:46:49.353
5,3,-7,-48,27,-9,-47,-4,2020-11-12 21:46:49.358
1,19,20,40,-1,-13,-9,13,2020-11-12 21:46:49.364
1,19,20,40,-1,-13,-9,13,2020-11-12 21:46:49.371
7,-6,25,4,31,-18,13,4,2020-11-12 21:46:49.377
7,-6,25,4,31,-18,13,4,2020-11-12 21:46:49.383
-3,-25,23,1,18,49,42,12,2020-11-12 21:46:49.389
-3,-25,23,1,18,49,42,12,2020-11-12 21:46:49.395
-4,0,-11,-2,14,-39,-5,-6,2020-11-12 21:46:49.401
-4,0,-11,-2,14,-39,-5,-6,2020-11-12 21:46:49.407
-4,0,-11,-2,14,-39,-5,-6,2020-11-12 21:46:49.412
-5,-7,-12,-6,-12,11,25,8,2020-11-12 21:46:49.419
12,24,-5,-5,14,12,21,33,2020-11-12 21:46:49.425
12,24,-5,-5,14,12,21,33,2020-11-12 21:46:49.430
-6,-4,4,5,-15,-13,-58,-29,2020-11-12 21:46:49.437
-6,-4,4,5,-15,-13,-58,-29,2020-11-12 21:46:49.442
-8,-3,15,-7,-26,-32,-41,-32,2020-11-12 21:46:49.448
-8,-3,15,-7,-26,-32,-41,-32,2020-11-12 21:46:49.454
-7,-18,-23,0,4,18,53,3,2020-11-12 21:46:49.460
-7,-18,-23,0,4,18,53,3,2020-11-12 21:46:49.466
7,0,-16,0,-12,0,29,25,2020-11-12 21:46:49.472
7,0,-16,0,-12,0,29,25,2020-11-12 21:46:49.478
-15,-9,25,8,12,27,-12,-16,2020-11-12 21:46:49.493
19,13,-1,-7,3,21,45,25,2020-11-12 21:46:49.498
-12,-9,-10,-13,-8,-20,-5,-5,2020-11-12 21:46:49.505
-12,-9,-10,-13,-8,-20,-5,-5,2020-11-12 21:46:49.510
-12,-9,-10,-13,-8,-20,-5,-5,2020-11-12 21:46:49.516
-13,-12,-7,-9,-7,-38,-16,-5,2020-11-12 21:46:49.523
-15,-9,-4,4,10,24,105,-10,2020-11-12 21:46:49.528
-15,-9,-4,4,10,24,105,-10,2020-11-12 21:46:49.534
-15,-9,-4,4,10,24,105,-10,2020-11-12 21:46:49.540
25,25,15,26,41,58,29,76,2020-11-12 21:46:49.546
25,25,15,26,41,58,29,76,2020-11-12 21:46:49.553
25,25,15,26,41,58,29,76,2020-11-12 21:46:49.559
25,25,15,26,41,58,29,76,2020-11-12 21:46:49.564
-12,4,-15,-16,13,-3,-34,-18,2020-11-12 21:46:49.571
-12,4,-15,-16,13,-3,-34,-18,2020-11-12 21:46:49.577
-3,-30,25,49,-19,-65,-64,-8,2020-11-12 21:46:49.584
-19,39,30,27,18,-9,-63,-33,2020-11-12 21:46:49.590
-19,39,30,27,18,-9,-63,-33,2020-11-12 21:46:49.596
-11,-14,-28,-8,1,-5,-54,-27,2020-11-12 21:46:49.602
13,-50,-6,-2,17,-9,29,12,2020-11-12 21:46:49.608
13,-50,-6,-2,17,-9,29,12,2020-11-12 21:46:49.614
8,13,17,4,6,-5,25,13,2020-11-12 21:46:49.620
0,14,-6,-9,-13,-8,-24,-21,2020-11-12 21:46:49.626
0,14,-6,-9,-13,-8,-24,-21,2020-11-12 21:46:49.631
0,14,-6,-9,-13,-8,-24,-21,2020-11-12 21:46:49.638
2,-11,-41,-20,-6,12,42,11,2020-11-12 21:46:49.644
-7,-16,-10,-3,-19,-23,-8,-18,2020-11-12 21:46:49.649
-7,-16,-10,-3,-19,-23,-8,-18,2020-11-12 21:46:49.656
3,17,3,16,21,-2,2,10,2020-11-12 21:46:49.662
3,17,3,16,21,-2,2,10,2020-11-12 21:46:49.668
-5,-22,-5,-13,-35,7,11,12,2020-11-12 21:46:49.674
15,16,10,-15,-8,12,-44,-8,2020-11-12 21:46:49.679
4,19,-9,11,2,-13,-28,-12,2020-11-12 21:46:49.693
-22,-32,37,-3,-11,19,22,-37,2020-11-12 21:46:49.698
-22,-32,37,-3,-11,19,22,-37,2020-11-12 21:46:49.705
-16,-8,-17,-4,-10,-22,-21,-18,2020-11-12 21:46:49.711
-16,-8,-17,-4,-10,-22,-21,-18,2020-11-12 21:46:49.717
5,28,8,4,11,-1,-47,-8,2020-11-12 21:46:49.724
3,-6,-22,6,-13,0,-40,-6,2020-11-12 21:46:49.729
-3,11,4,-29,-12,-6,33,-8,2020-11-12 21:46:49.736
-9,-18,-13,12,3,14,-16,9,2020-11-12 21:46:49.742
1,7,16,55,-2,-29,-53,5,2020-11-12 21:46:49.747
1,7,16,55,-2,-29,-53,5,2020-11-12 21:46:49.753
-3,-6,-3,27,12,-7,26,12,2020-11-12 21:46:49.759
-3,-6,-3,27,12,-7,26,12,2020-11-12 21:46:49.764
-3,-10,-26,-19,-22,-1,-38,-8,2020-11-12 21:46:49.771
-3,-10,-26,-19,-22,-1,-38,-8,2020-11-12 21:46:49.777
5,26,1,-34,1,-32,-15,3,2020-11-12 21:46:49.782
-24,-61,-22,41,-14,-54,-42,-31,2020-11-12 21:46:49.789
-13,-11,41,-8,6,9,44,5,2020-11-12 21:46:49.795
-13,-11,41,-8,6,9,44,5,2020-11-12 21:46:49.802
32,27,11,11,14,30,53,50,2020-11-12 21:46:49.807
32,27,11,11,14,30,53,50,2020-11-12 21:46:49.813
11,1,10,-1,-22,33,43,47,2020-11-12 21:46:49.819
11,1,10,-1,-22,33,43,47,2020-11-12 21:46:49.826
4,-4,-5,-3,-18,-25,-10,-7,2020-11-12 21:46:49.831
4,-4,-5,-3,-18,-25,-10,-7,2020-11-12 21:46:49.838
-20,-15,-14,1,-6,-42,30,31,2020-11-12 21:46:49.843
2,0,-2,-4,31,40,127,9,2020-11-12 21:46:49.848
2,0,-2,-4,31,40,127,9,2020-11-12 21:46:49.856
2,0,-2,-4,31,40,127,9,2020-11-12 21:46:49.862
15,29,-21,-5,12,-1,0,-2,2020-11-12 21:46:49.868
15,29,-21,-5,12,-1,0,-2,2020-11-12 21:46:49.874
11,13,-3,2,6,0,-8,3,2020-11-12 21:46:49.880
11,13,-3,2,6,0,-8,3,2020-11-12 21:46:49.895
8,3,-7,11,-2,0,37,44,2020-11-12 21:46:49.899
10,15,25,-1,0,5,-64,-29,2020-11-12 21:46:49.906
-11,-5,-8,-14,-4,8,28,1,2020-11-12 21:46:49.912
-11,-5,-8,-14,-4,8,28,1,2020-11-12 21:46:49.918
-11,-5,-8,-14,-4,8,28,1,2020-11-12 21:46:49.924
-17,-10,26,19,2,-11,-13,-66,2020-11-12 21:46:49.929
-17,-10,26,19,2,-11,-13,-66,2020-11-12 21:46:49.936
-14,-11,2,-7,-14,71,-4,-39,2020-11-12 21:46:49.942
20,3,9,-14,7,24,36,56,2020-11-12 21:46:49.947
20,3,9,-14,7,24,36,56,2020-11-12 21:46:49.954
20,3,9,-14,7,24,36,56,2020-11-12 21:46:49.960
25,6,-12,-9,24,-79,-89,52,2020-11-12 21:46:49.966
0,-9,3,9,3,24,-48,17,2020-11-12 21:46:49.973
0,-9,3,9,3,24,-48,17,2020-11-12 21:46:49.978
-2,3,-35,3,5,-73,13,-8,2020-11-12 21:46:49.984
-8,-38,-20,-35,-10,-34,76,19,2020-11-12 21:46:49.990
-8,-38,-20,-35,-10,-34,76,19,2020-11-12 21:46:49.996
-2,24,35,27,12,20,-7,-11,2020-11-12 21:46:50.003
0,17,9,20,1,-52,-43,-22,2020-11-12 21:46:50.008
0,17,9,20,1,-52,-43,-22,2020-11-12 21:46:50.015
0,17,9,20,1,-52,-43,-22,2020-11-12 21:46:50.021
5,-18,4,32,-1,1,28,8,2020-11-12 21:46:50.027
1,10,19,10,31,53,21,-3,2020-11-12 21:46:50.032
1,10,19,10,31,53,21,-3,2020-11-12 21:46:50.039
-6,-12,-10,5,-10,-60,-90,-32,2020-11-12 21:46:50.045
-6,-12,-10,5,-10,-60,-90,-32,2020-11-12 21:46:50.050
-6,-12,-10,5,-10,-60,-90,-32,2020-11-12 21:46:50.073
6,4,3,-11,-9,23,120,28,2020-11-12 21:46:50.078
-13,-16,-3,-12,-34,20,51,0,2020-11-12 21:46:50.085
17,9,3,-4,-1,-10,-20,28,2020-11-12 21:46:50.099
-8,21,9,61,-10,57,53,-24,2020-11-12 21:46:50.105
-8,21,9,61,-10,57,53,-24,2020-11-12 21:46:50.111
-8,21,9,61,-10,57,53,-24,2020-11-12 21:46:50.116
-2,-47,30,46,14,-3,32,24,2020-11-12 21:46:50.123
-9,-22,-11,8,1,5,-49,-13,2020-11-12 21:46:50.129
-9,-22,-11,8,1,5,-49,-13,2020-11-12 21:46:50.136
-5,19,19,-20,3,-4,-33,-21,2020-11-12 21:46:50.143
-20,-59,-28,19,-13,-57,-71,-12,2020-11-12 21:46:50.149
-20,-59,-28,19,-13,-57,-71,-12,2020-11-12 21:46:50.157
-20,-59,-28,19,-13,-57,-71,-12,2020-11-12 21:46:50.163
5,28,-13,-48,-9,-6,7,4,2020-11-12 21:46:50.170
5,28,-13,-48,-9,-6,7,4,2020-11-12 21:46:50.176
-8,5,-26,-32,2,3,18,-3,2020-11-12 21:46:50.181
-8,5,-26,-32,2,3,18,-3,2020-11-12 21:46:50.187
-8,5,-26,-32,2,3,18,-3,2020-11-12 21:46:50.193
-7,8,32,6,11,21,15,-20,2020-11-12 21:46:50.199
-2,2,-21,-13,-17,-14,-10,-11,2020-11-12 21:46:50.207
5,11,-2,-16,-28,68,48,5,2020-11-12 21:46:50.212
5,11,-2,-16,-28,68,48,5,2020-11-12 21:46:50.219
-2,21,-7,-13,3,-9,9,-34,2020-11-12 21:46:50.225
-9,1,22,3,30,-44,-38,-65,2020-11-12 21:46:50.230
-9,1,22,3,30,-44,-38,-65,2020-11-12 21:46:50.238
14,2,10,3,-13,40,-14,38,2020-11-12 21:46:50.244
4,9,10,17,35,-2,11,10,2020-11-12 21:46:50.249
4,9,10,17,35,-2,11,10,2020-11-12 21:46:50.256
-10,-13,-27,-35,-18,55,-64,1,2020-11-12 21:46:50.262
-10,-13,-27,-35,-18,55,-64,1,2020-11-12 21:46:50.268
21,15,9,-4,-12,9,33,67,2020-11-12 21:46:50.274
21,15,9,-4,-12,9,33,67,2020-11-12 21:46:50.279
1,1,-1,-16,-7,5,-14,1,2020-11-12 21:46:50.287
1,1,-1,-16,-7,5,-14,1,2020-11-12 21:46:50.303
28,6,11,23,13,-3,-82,25,2020-11-12 21:46:50.308
28,6,11,23,13,-3,-82,25,2020-11-12 21:46:50.314
28,6,11,23,13,-3,-82,25,2020-11-12 21:46:50.321
20,16,0,-10,-9,-16,-1,3,2020-11-12 21:46:50.327
-20,-26,4,18,9,11,0,-33,2020-11-12 21:46:50.332
-20,-26,4,18,9,11,0,-33,2020-11-12 21:46:50.339
-17,-52,1,62,12,-20,-12,-5,2020-11-12 21:46:50.345
-17,-52,1,62,12,-20,-12,-5,2020-11-12 21:46:50.350
-17,-52,1,62,12,-20,-12,-5,2020-11-12 21:46:50.357
0,-6,7,3,19,-13,12,-18,2020-11-12 21:46:50.363
26,58,1,-18,-60,-5,28,27,2020-11-12 21:46:50.369
26,58,1,-18,-60,-5,28,27,2020-11-12 21:46:50.376
-4,-42,-46,-51,50,7,-17,-10,2020-11-12 21:46:50.381
-4,-42,-46,-51,50,7,-17,-10,2020-11-12 21:46:50.388
-3,0,-18,-68,-59,-28,-21,-3,2020-11-12 21:46:50.394
-3,0,-18,-68,-59,-28,-21,-3,2020-11-12 21:46:50.399
-20,-17,16,-33,21,9,-7,-18,2020-11-12 21:46:50.406
-20,-17,16,-33,21,9,-7,-18,2020-11-12 21:46:50.411
-20,-17,16,-33,21,9,-7,-18,2020-11-12 21:46:50.417
-10,-2,5,24,18,-21,17,-1,2020-11-12 21:46:50.423
-6,-12,-21,-7,-25,15,4,6,2020-11-12 21:46:50.429
-6,-12,-21,-7,-25,15,4,6,2020-11-12 21:46:50.435
19,27,44,20,10,25,-3,48,2020-11-12 21:46:50.441
19,27,44,20,10,25,-3,48,2020-11-12 21:46:50.447
-2,-19,-14,-24,17,-6,13,4,2020-11-12 21:46:50.453
-2,-19,-14,-24,17,-6,13,4,2020-11-12 21:46:50.459
-11,0,-28,-6,5,-1,-78,-76,2020-11-12 21:46:50.465
-11,0,-28,-6,5,-1,-78,-76,2020-11-12 21:46:50.472
-9,11,21,-8,-37,18,74,-3,2020-11-12 21:46:50.478
-9,11,21,-8,-37,18,74,-3,2020-11-12 21:46:50.483
32,22,13,8,-9,57,91,62,2020-11-12 21:46:50.490
32,22,13,8,-9,57,91,62,2020-11-12 21:46:50.505
2,-5,-13,-11,-9,-38,48,53,2020-11-12 21:46:50.509
2,-5,-13,-11,-9,-38,48,53,2020-11-12 21:46:50.515
2,-5,-13,-11,-9,-38,48,53,2020-11-12 21:46:50.522
-4,19,25,17,-1,-24,53,8,2020-11-12 21:46:50.527
-4,19,25,17,-1,-24,53,8,2020-11-12 21:46:50.533
-10,-5,11,-3,-18,-13,-26,-36,2020-11-12 21:46:50.539
-10,-5,11,-3,-18,-13,-26,-36,2020-11-12 21:46:50.545
15,13,-9,-5,12,23,-75,6,2020-11-12 21:46:50.552
15,13,-9,-5,12,23,-75,6,2020-11-12 21:46:50.558
-11,-15,-23,-19,26,25,-65,-21,2020-11-12 21:46:50.563
6,34,19,8,21,0,31,10,2020-11-12 21:46:50.570
6,34,19,8,21,0,31,10,2020-11-12 21:46:50.576
6,34,19,8,21,0,31,10,2020-11-12 21:46:50.582
-15,-8,-3,14,0,-32,-42,-34,2020-11-12 21:46:50.589
-15,-8,-3,14,0,-32,-42,-34,2020-11-12 21:46:50.595
9,0,11,11,8,3,63,18,2020-11-12 21:46:50.601
-7,-9,-14,-7,4,47,-16,-16,2020-11-12 21:46:50.607
-7,-9,-14,-7,4,47,-16,-16,2020-11-12 21:46:50.613
-7,-9,-14,-7,4,47,-16,-16,2020-11-12 21:46:50.619
-9,5,0,-16,-2,1,29,5,2020-11-12 21:46:50.626
1,-13,-1,1,3,-7,39,-19,2020-11-12 21:46:50.632
1,-13,-1,1,3,-7,39,-19,2020-11-12 21:46:50.638
2,10,0,14,8,54,-85,-55,2020-11-12 21:46:50.644
2,10,0,14,8,54,-85,-55,2020-11-12 21:46:50.649
-14,-16,-5,-9,-14,-28,-63,11,2020-11-12 21:46:50.656
-5,-1,-1,8,10,-30,65,-1,2020-11-12 21:46:50.662
-12,-7,-8,-8,10,33,-16,-10,2020-11-12 21:46:50.667
-12,-7,-8,-8,10,33,-16,-10,2020-11-12 21:46:50.675
-13,-15,15,27,-15,-11,-11,-23,2020-11-12 21:46:50.680
-4,-9,-5,-51,-9,-12,-52,-13,2020-11-12 21:46:50.687
1,31,30,16,11,1,79,19,2020-11-12 21:46:50.693
1,31,30,16,11,1,79,19,2020-11-12 21:46:50.707
-14,-26,-11,-38,1,-42,-47,-31,2020-11-12 21:46:50.712
-14,-26,-11,-38,1,-42,-47,-31,2020-11-12 21:46:50.717
-14,-26,-11,-38,1,-42,-47,-31,2020-11-12 21:46:50.725
-14,-26,-11,-38,1,-42,-47,-31,2020-11-12 21:46:50.730
-26,-5,1,30,-26,-12,-17,-31,2020-11-12 21:46:50.737
19,12,15,-8,-29,34,49,28,2020-11-12 21:46:50.743
20,18,23,9,16,33,56,-25,2020-11-12 21:46:50.749
20,18,23,9,16,33,56,-25,2020-11-12 21:46:50.755
20,18,23,9,16,33,56,-25,2020-11-12 21:46:50.761
20,18,23,9,16,33,56,-25,2020-11-12 21:46:50.767
-7,-22,-19,-13,-4,10,-11,35,2020-11-12 21:46:50.774
-7,-22,-19,-13,-4,10,-11,35,2020-11-12 21:46:50.780
-7,-22,-19,-13,-4,10,-11,35,2020-11-12 21:46:50.787
5,-2,-8,-13,-1,2,-22,-23,2020-11-12 21:46:50.792
5,-2,-8,-13,-1,2,-22,-23,2020-11-12 21:46:50.797
5,-8,-3,0,-9,-34,-22,25,2020-11-12 21:46:50.804
11,10,-2,-1,14,21,28,41,2020-11-12 21:46:50.810
11,10,-2,-1,14,21,28,41,2020-11-12 21:46:50.816
11,10,-2,-1,14,21,28,41,2020-11-12 21:46:50.823
2,5,10,-2,-42,-5,-54,-18,2020-11-12 21:46:50.829
-3,-9,-8,0,-7,-18,-41,-49,2020-11-12 21:46:50.834
-3,-9,-8,0,-7,-18,-41,-49,2020-11-12 21:46:50.840
-3,-9,-8,0,-7,-18,-41,-49,2020-11-12 21:46:50.846
-4,-8,-3,-32,-11,-35,14,7,2020-11-12 21:46:50.852
-4,-8,-3,-32,-11,-35,14,7,2020-11-12 21:46:50.858
-8,25,-28,31,5,-22,-37,-24,2020-11-12 21:46:50.864
12,-4,14,-7,17,-4,74,44,2020-11-12 21:46:50.870
12,-4,14,-7,17,-4,74,44,2020-11-12 21:46:50.876
12,-4,14,-7,17,-4,74,44,2020-11-12 21:46:50.881
-6,-8,-11,32,16,-2,69,1,2020-11-12 21:46:50.888
-19,-18,-11,45,-4,-28,-120,-42,2020-11-12 21:46:50.893
-19,-18,-11,45,-4,-28,-120,-42,2020-11-12 21:46:50.907
6,18,-39,-23,-11,-7,15,20,2020-11-12 21:46:50.913
6,18,-39,-23,-11,-7,15,20,2020-11-12 21:46:50.918
-15,-27,-46,-50,-7,-12,-17,-22,2020-11-12 21:46:50.925
-6,-19,5,-37,-6,7,-20,-10,2020-11-12 21:46:50.931
-6,-19,5,-37,-6,7,-20,-10,2020-11-12 21:46:50.937
2,-14,17,-7,-8,11,-1,0,2020-11-12 21:46:50.943
2,-14,17,-7,-8,11,-1,0,2020-11-12 21:46:50.948
11,36,-5,0,-13,-18,26,-7,2020-11-12 21:46:50.956
11,36,-5,0,-13,-18,26,-7,2020-11-12 21:46:50.961
6,1,10,22,18,21,17,27,2020-11-12 21:46:50.967
6,1,10,22,18,21,17,27,2020-11-12 21:46:50.973
6,1,10,22,18,21,17,27,2020-11-12 21:46:50.979
-22,0,10,0,15,26,-21,-48,2020-11-12 21:46:50.985
24,10,18,10,-10,10,57,18,2020-11-12 21:46:50.991
24,10,18,10,-10,10,57,18,2020-11-12 21:46:50.997
-6,-3,1,14,66,-40,61,45,2020-11-12 21:46:51.003
-6,-3,1,14,66,-40,61,45,2020-11-12 21:46:51.008
-2,-10,3,0,-3,-38,-75,-35,2020-11-12 21:46:51.015
-2,-10,3,0,-3,-38,-75,-35,2020-11-12 21:46:51.022
1,0,-1,6,7,16,31,1,2020-11-12 21:46:51.028
1,0,-1,6,7,16,31,1,2020-11-12 21:46:51.034
1,0,-1,6,7,16,31,1,2020-11-12 21:46:51.040
-16,-2,-3,-14,-14,-11,49,-34,2020-11-12 21:46:51.046
-17,-12,-2,26,0,16,-66,-22,2020-11-12 21:46:51.052
-17,-12,-2,26,0,16,-66,-22,2020-11-12 21:46:51.058
7,2,2,8,-21,-21,-25,-25,2020-11-12 21:46:51.063
7,2,2,8,-21,-21,-25,-25,2020-11-12 21:46:51.070
-5,0,8,23,14,-30,17,10,2020-11-12 21:46:51.076
-5,0,8,23,14,-30,17,10,2020-11-12 21:46:51.082
-6,-9,8,-29,-12,7,53,2,2020-11-12 21:46:51.088
-6,-9,8,-29,-12,7,53,2,2020-11-12 21:46:51.094
-6,-9,8,-29,-12,7,53,2,2020-11-12 21:46:51.109
-1,-10,-35,15,-14,18,0,2,2020-11-12 21:46:51.114
-1,-10,-35,15,-14,18,0,2,2020-11-12 21:46:51.121
14,44,-7,-17,13,6,28,18,2020-11-12 21:46:51.127
14,44,-7,-17,13,6,28,18,2020-11-12 21:46:51.132
14,44,-7,-17,13,6,28,18,2020-11-12 21:46:51.139
2,-7,-26,-21,7,-17,-9,8,2020-11-12 21:46:51.145
-1,21,22,7,1,8,7,7,2020-11-12 21:46:51.150
-1,21,22,7,1,8,7,7,2020-11-12 21:46:51.157
4,-10,-7,0,10,17,-10,4,2020-11-12 21:46:51.163
-14,37,22,6,7,-33,-56,-36,2020-11-12 21:46:51.168
-8,-26,-17,-13,2,33,68,36,2020-11-12 21:46:51.175
-8,-26,-17,-13,2,33,68,36,2020-11-12 21:46:51.181
0,22,15,7,5,11,11,-10,2020-11-12 21:46:51.188
6,-2,29,18,-4,-13,1,34,2020-11-12 21:46:51.194
6,-2,29,18,-4,-13,1,34,2020-11-12 21:46:51.199
6,-2,29,18,-4,-13,1,34,2020-11-12 21:46:51.205
-10,5,8,-17,-21,29,11,-38,2020-11-12 21:46:51.230
-2,10,-6,-15,-19,-19,-41,19,2020-11-12 21:46:51.237
-2,10,-6,-15,-19,-19,-41,19,2020-11-12 21:46:51.243
-5,-12,-5,10,6,-30,-62,-29,2020-11-12 21:46:51.248
20,13,10,-1,-34,54,-22,10,2020-11-12 21:46:51.255
20,13,10,-1,-34,54,-22,10,2020-11-12 21:46:51.261
-7,-8,-3,12,21,-30,13,-9,2020-11-12 21:46:51.267
-9,-4,7,-9,9,1,31,-47,2020-11-12 21:46:51.273
-9,-4,7,-9,9,1,31,-47,2020-11-12 21:46:51.278
22,14,-16,13,6,18,50,38,2020-11-12 21:46:51.285
-5,17,-26,-28,24,1,22,10,2020-11-12 21:46:51.292
-5,17,-26,-28,24,1,22,10,2020-11-12 21:46:51.298
-32,-65,-24,84,15,26,14,-41,2020-11-12 21:46:51.314
-5,-11,5,-8,22,14,44,3,2020-11-12 21:46:51.321
-7,4,-1,42,17,-37,-98,-40,2020-11-12 21:46:51.327
-7,4,-1,42,17,-37,-98,-40,2020-11-12 21:46:51.333
-7,4,-1,42,17,-37,-98,-40,2020-11-12 21:46:51.340
-37,-32,7,-18,1,28,31,13,2020-11-12 21:46:51.345
-37,-32,7,-18,1,28,31,13,2020-11-12 21:46:51.351
4,-8,-11,-10,13,4,7,15,2020-11-12 21:46:51.358
-6,6,-1,-17,-39,4,26,1,2020-11-12 21:46:51.364
-6,6,-1,-17,-39,4,26,1,2020-11-12 21:46:51.370
0,0,22,17,-4,-11,27,20,2020-11-12 21:46:51.376
0,0,22,17,-4,-11,27,20,2020-11-12 21:46:51.382
2,-2,5,5,-13,47,64,29,2020-11-12 21:46:51.388
2,-2,5,5,-13,47,64,29,2020-11-12 21:46:51.394
2,-2,5,5,-13,47,64,29,2020-11-12 21:46:51.399
70,36,13,-6,24,52,73,73,2020-11-12 21:46:51.406
-3,-9,-6,4,7,-3,70,38,2020-11-12 21:46:51.412
-3,-9,-6,4,7,-3,70,38,2020-11-12 21:46:51.418
2,10,3,-2,17,64,29,-108,2020-11-12 21:46:51.424
2,10,3,-2,17,64,29,-108,2020-11-12 21:46:51.429
2,10,3,-2,17,64,29,-108,2020-11-12 21:46:51.435
-15,-10,-12,-5,-8,-33,-5,-60,2020-11-12 21:46:51.442
-6,-4,6,45,21,-32,-128,-68,2020-11-12 21:46:51.447
-6,-4,6,45,21,-32,-128,-68,2020-11-12 21:46:51.454
4,15,-36,-17,-28,-4,94,15,2020-11-12 21:46:51.460
-18,-7,23,-22,2,14,-36,1,2020-11-12 21:46:51.465
1,-13,-26,-85,-20,-62,-23,17,2020-11-12 21:46:51.472
1,-13,-26,-85,-20,-62,-23,17,2020-11-12 21:46:51.478
3,-2,-9,-9,-18,15,-43,20,2020-11-12 21:46:51.484
3,-2,-9,-9,-18,15,-43,20,2020-11-12 21:46:51.490
1,-1,19,-2,-19,-6,-33,-12,2020-11-12 21:46:51.496
1,-1,19,-2,-19,-6,-33,-12,2020-11-12 21:46:51.502
17,1,-23,-11,-8,7,11,13,2020-11-12 21:46:51.516
6,27,5,21,17,0,-11,17,2020-11-12 21:46:51.523
6,27,5,21,17,0,-11,17,2020-11-12 21:46:51.528
2,11,9,11,10,-44,15,18,2020-11-12 21:46:51.534
2,11,9,11,10,-44,15,18,2020-11-12 21:46:51.542
3,-3,21,15,7,-26,15,8,2020-11-12 21:46:51.547
7,-1,8,-4,-7,5,55,60,2020-11-12 21:46:51.553
7,-1,8,-4,-7,5,55,60,2020-11-12 21:46:51.559
7,-1,8,-4,-7,5,55,60,2020-11-12 21:46:51.565
-15,8,-10,5,5,50,-45,-61,2020-11-12 21:46:51.572
-15,8,-10,5,5,50,-45,-61,2020-11-12 21:46:51.577
-30,-14,-19,-6,-21,-56,43,-26,2020-11-12 21:46:51.583
1,-3,-1,7,-8,-28,21,-55,2020-11-12 21:46:51.591
1,-3,-1,7,-8,-28,21,-55,2020-11-12 21:46:51.596
1,-3,-1,7,-8,-28,21,-55,2020-11-12 21:46:51.602
-15,-9,0,-5,1,-29,-42,-26,2020-11-12 21:46:51.609
-5,-6,-21,-4,26,50,33,-10,2020-11-12 21:46:51.615
-5,-6,-21,-4,26,50,33,-10,2020-11-12 21:46:51.621
7,-8,0,-7,-10,6,-77,-4,2020-11-12 21:46:51.627
7,-8,0,-7,-10,6,-77,-4,2020-11-12 21:46:51.633
9,6,19,35,19,23,-53,6,2020-11-12 21:46:51.639
4,-19,71,-22,-5,-7,0,21,2020-11-12 21:46:51.646
8,4,-11,-32,1,24,8,1,2020-11-12 21:46:51.651
8,4,-11,-32,1,24,8,1,2020-11-12 21:46:51.657
17,36,-39,29,21,-16,-52,11,2020-11-12 21:46:51.663
17,36,-39,29,21,-16,-52,11,2020-11-12 21:46:51.668
-3,-15,4,-6,-11,22,2,10,2020-11-12 21:46:51.675
-3,-15,4,-6,-11,22,2,10,2020-11-12 21:46:51.681
9,3,-6,29,-6,-27,17,6,2020-11-12 21:46:51.687
-17,-2,-15,-12,7,-1,56,-60,2020-11-12 21:46:51.693
-17,-2,-15,-12,7,-1,56,-60,2020-11-12 21:46:51.699
-17,-2,-15,-12,7,-1,56,-60,2020-11-12 21:46:51.706
-16,-5,-4,-6,3,14,-10,36,2020-11-12 21:46:51.720
7,-8,-13,-10,-5,-13,78,20,2020-11-12 21:46:51.726
3,9,7,22,0,-30,25,38,2020-11-12 21:46:51.731
3,9,7,22,0,-30,25,38,2020-11-12 21:46:51.738
3,9,7,22,0,-30,25,38,2020-11-12 21:46:51.744
-19,-10,-16,-15,-5,-7,-54,-19,2020-11-12 21:46:51.749
-2,6,12,13,33,-3,-13,-15,2020-11-12 21:46:51.756
-2,6,12,13,33,-3,-13,-15,2020-11-12 21:46:51.762
-2,6,12,13,33,-3,-13,-15,2020-11-12 21:46:51.768
-6,-6,1,-16,-55,44,-128,-47,2020-11-12 21:46:51.775
-6,-6,1,-16,-55,44,-128,-47,2020-11-12 21:46:51.780
8,39,18,10,7,13,-24,-24,2020-11-12 21:46:51.787
6,-21,36,37,9,-28,-58,9,2020-11-12 21:46:51.793
6,-21,36,37,9,-28,-58,9,2020-11-12 21:46:51.799
6,-21,36,37,9,-28,-58,9,2020-11-12 21:46:51.805
-17,-13,10,29,-4,37,49,-8,2020-11-12 21:46:51.811
20,18,0,-31,1,-25,-23,17,2020-11-12 21:46:51.817
20,18,0,-31,1,-25,-23,17,2020-11-12 21:46:51.824
-8,4,-6,-16,-8,4,63,-2,2020-11-12 21:46:51.829
4,5,-1,19,-9,10,23,1,2020-11-12 21:46:51.835
4,5,-1,19,-9,10,23,1,2020-11-12 21:46:51.842
-26,-73,-9,17,-14,-6,-13,-16,2020-11-12 21:46:51.848
-26,-73,-9,17,-14,-6,-13,-16,2020-11-12 21:46:51.855
7,38,-9,-21,-15,-25,-12,-8,2020-11-12 21:46:51.860
-4,25,-21,-74,-5,4,-14,-14,2020-11-12 21:46:51.866
-4,25,-21,-74,-5,4,-14,-14,2020-11-12 21:46:51.873
-4,25,-21,-74,-5,4,-14,-14,2020-11-12 21:46:51.879
26,-8,-18,-10,-51,27,37,48,2020-11-12 21:46:51.886
47,8,9,16,13,-18,37,96,2020-11-12 21:46:51.892
23,26,6,5,23,72,17,0,2020-11-12 21:46:51.898
23,26,6,5,23,72,17,0,2020-11-12 21:46:51.904
23,26,6,5,23,72,17,0,2020-11-12 21:46:51.910
1,2,8,16,26,9,31,18,2020-11-12 21:46:51.924
-22,-16,-13,-6,-17,-29,-36,-76,2020-11-12 21:46:51.930
-12,-16,-8,4,23,79,9,-28,2020-11-12 21:46:51.936
-12,-16,-8,4,23,79,9,-28,2020-11-12 21:46:51.942
-12,-20,-10,-6,-21,71,75,-33,2020-11-12 21:46:51.948
-6,10,2,19,41,-58,54,6,2020-11-12 21:46:51.954
0,-10,-1,-12,-1,-25,100,26,2020-11-12 21:46:51.960
-13,0,-6,-5,0,-6,-96,-6,2020-11-12 21:46:51.965
-13,0,-6,-5,0,-6,-96,-6,2020-11-12 21:46:51.972
-7,-6,-2,8,8,2,-72,16,2020-11-12 21:46:51.978
-7,-6,-2,8,8,2,-72,16,2020-11-12 21:46:51.983
-23,-16,-13,-34,-48,15,67,-11,2020-11-12 21:46:51.989
-17,-2,59,9,-2,-41,-114,-40,2020-11-12 21:46:51.995
-17,-2,59,9,-2,-41,-114,-40,2020-11-12 21:46:52.001
-17,-2,59,9,-2,-41,-114,-40,2020-11-12 21:46:52.007
2,-27,-77,-103,7,37,-40,5,2020-11-12 21:46:52.014
4,7,-64,-47,-2,-21,5,-8,2020-11-12 21:46:52.021
19,23,17,65,24,27,35,25,2020-11-12 21:46:52.027
1,17,-4,23,16,-3,-14,-10,2020-11-12 21:46:52.033
1,17,-4,23,16,-3,-14,-10,2020-11-12 21:46:52.039
-6,-19,-9,-33,-11,5,-8,1,2020-11-12 21:46:52.045
-4,21,-2,16,21,21,-12,2,2020-11-12 21:46:52.050
-59,-22,-2,5,4,26,21,-98,2020-11-12 21:46:52.057
-59,-22,-2,5,4,26,21,-98,2020-11-12 21:46:52.063
27,16,33,14,13,6,15,82,2020-11-12 21:46:52.069
27,16,33,14,13,6,15,82,2020-11-12 21:46:52.075
27,16,33,14,13,6,15,82,2020-11-12 21:46:52.080
21,4,16,3,-16,49,-25,-17,2020-11-12 21:46:52.087
24,13,2,3,-9,-56,-8,93,2020-11-12 21:46:52.093
24,13,2,3,-9,-56,-8,93,2020-11-12 21:46:52.099
-22,-2,16,20,18,-78,-38,-30,2020-11-12 21:46:52.107
-22,-2,16,20,18,-78,-38,-30,2020-11-12 21:46:52.113
-18,-7,6,0,10,5,59,-70,2020-11-12 21:46:52.127
11,4,13,30,16,11,17,13,2020-11-12 21:46:52.133
-5,-2,-32,-101,-38,-4,23,4,2020-11-12 21:46:52.139
-15,-9,-16,-7,-36,58,36,-31,2020-11-12 21:46:52.145
-15,-9,-16,-7,-36,58,36,-31,2020-11-12 21:46:52.151
33,16,11,30,24,29,39,51,2020-11-12 21:46:52.158
33,16,11,30,24,29,39,51,2020-11-12 21:46:52.163
10,8,24,9,8,20,36,-5,2020-11-12 21:46:52.169
0,-35,-37,-73,-34,51,55,25,2020-11-12 21:46:52.176
0,-35,-37,-73,-34,51,55,25,2020-11-12 21:46:52.181
0,-35,-37,-73,-34,51,55,25,2020-11-12 21:46:52.187
-22,-12,-7,11,-24,-45,-17,-35,2020-11-12 21:46:52.193
6,-13,26,59,18,-12,-49,5,2020-11-12 21:46:52.199
0,-1,-9,-30,-24,5,-1,11,2020-11-12 21:46:52.206
6,0,2,-18,9,-3,12,23,2020-11-12 21:46:52.211
-8,4,-6,4,34,2,21,-39,2020-11-12 21:46:52.217
-8,4,-6,4,34,2,21,-39,2020-11-12 21:46:52.224
45,5,4,18,16,-57,98,82,2020-11-12 21:46:52.229
5,1,13,28,2,-29,-18,58,2020-11-12 21:46:52.235
5,1,13,28,2,-29,-18,58,2020-11-12 21:46:52.242
-13,-5,-24,-25,-32,-6,-102,-20,2020-11-12 21:46:52.248
-13,-5,-24,-25,-32,-6,-102,-20,2020-11-12 21:46:52.255
7,13,19,25,3,-9,-41,-10,2020-11-12 21:46:52.260
5,9,12,-5,-4,0,-22,-29,2020-11-12 21:46:52.266
-3,6,-11,19,6,-1,-11,-4,2020-11-12 21:46:52.273
-3,6,-11,19,6,-1,-11,-4,2020-11-12 21:46:52.278
-3,6,-11,19,6,-1,-11,-4,2020-11-12 21:46:52.285
-14,-1,15,15,-20,76,48,-25,2020-11-12 21:46:52.292
-1,-7,-13,33,32,66,120,42,2020-11-12 21:46:52.297
-1,-7,-13,33,32,66,120,42,2020-11-12 21:46:52.303
-7,31,4,-71,-26,42,78,-7,2020-11-12 21:46:52.310
-7,31,4,-71,-26,42,78,-7,2020-11-12 21:46:52.316
7,11,29,57,-24,-16,-57,3,2020-11-12 21:46:52.333
3,9,13,6,-15,-3,1,-6,2020-11-12 21:46:52.339
3,9,13,6,-15,-3,1,-6,2020-11-12 21:46:52.345
16,19,6,38,2,55,19,13,2020-11-12 21:46:52.350
0,-13,-10,-5,33,-47,-42,-31,2020-11-12 21:46:52.356
0,-13,-10,-5,33,-47,-42,-31,2020-11-12 21:46:52.361
-1,-4,5,49,42,59,27,13,2020-11-12 21:46:52.367
-1,-4,5,49,42,59,27,13,2020-11-12 21:46:52.374
0,5,0,-1,14,-39,-13,-25,2020-11-12 21:46:52.380
-6,0,18,47,30,-37,-17,-18,2020-11-12 21:46:52.386
-16,1,-1,-34,-29,-20,-81,-51,2020-11-12 21:46:52.409
8,-5,9,3,-6,50,56,26,2020-11-12 21:46:52.415
8,-5,9,3,-6,50,56,26,2020-11-12 21:46:52.422
24,15,14,16,1,-59,-94,2,2020-11-12 21:46:52.427
24,15,14,16,1,-59,-94,2,2020-11-12 21:46:52.433
-6,-14,-19,-29,-16,4,26,23,2020-11-12 21:46:52.439
-1,11,-5,-15,-10,-23,27,22,2020-11-12 21:46:52.445
-1,11,-5,-15,-10,-23,27,22,2020-11-12 21:46:52.450
-34,-54,-35,-37,-48,-15,-2,-59,2020-11-12 21:46:52.457
-34,-54,-35,-37,-48,-15,-2,-59,2020-11-12 21:46:52.463
-13,-9,2,4,34,47,10,14,2020-11-12 21:46:52.468
-13,-9,2,4,34,47,10,14,2020-11-12 21:46:52.475
-6,36,17,37,26,16,42,-10,2020-11-12 21:46:52.481
-6,36,17,37,26,16,42,-10,2020-11-12 21:46:52.487
-56,-46,-33,-49,-29,-5,82,-14,2020-11-12 21:46:52.493
9,4,-3,-12,-2,1,-29,-2,2020-11-12 21:46:52.499
-2,-9,-12,-20,2,7,47,-8,2020-11-12 21:46:52.506
11,8,5,14,-14,0,-11,-3,2020-11-12 21:46:52.512
11,8,5,14,-14,0,-11,-3,2020-11-12 21:46:52.517
11,8,5,14,-14,0,-11,-3,2020-11-12 21:46:52.532
5,3,-2,5,19,-9,-20,21,2020-11-12 21:46:52.539
5,3,-2,5,19,-9,-20,21,2020-11-12 21:46:52.545
11,-8,-21,32,-9,18,-12,0,2020-11-12 21:46:52.550
11,-8,-21,32,-9,18,-12,0,2020-11-12 21:46:52.557
16,23,3,15,-33,17,-1,27,2020-11-12 21:46:52.564
16,23,3,15,-33,17,-1,27,2020-11-12 21:46:52.569
13,29,-1,6,12,-5,17,12,2020-11-12 21:46:52.576
13,29,-1,6,12,-5,17,12,2020-11-12 21:46:52.582
-6,-35,-42,5,1,-6,1,-3,2020-11-12 21:46:52.589
4,27,33,-7,-6,-5,2,7,2020-11-12 21:46:52.595
4,27,33,-7,-6,-5,2,7,2020-11-12 21:46:52.600
4,27,33,-7,-6,-5,2,7,2020-11-12 21:46:52.607
11,19,5,-34,-1,-2,28,15,2020-11-12 21:46:52.613
-8,9,5,-4,18,-8,20,17,2020-11-12 21:46:52.618
-8,9,5,-4,18,-8,20,17,2020-11-12 21:46:52.626
-8,9,5,-4,18,-8,20,17,2020-11-12 21:46:52.632
-8,9,5,-4,18,-8,20,17,2020-11-12 21:46:52.638
-6,-2,-1,2,13,-24,-69,-42,2020-11-12 21:46:52.644
-4,-4,4,-5,-17,4,64,8,2020-11-12 21:46:52.649
9,-6,-22,-22,-34,24,23,8,2020-11-12 21:46:52.656
9,-6,-22,-22,-34,24,23,8,2020-11-12 21:46:52.662
9,-6,-22,-22,-34,24,23,8,2020-11-12 21:46:52.667
9,-6,-22,-22,-34,24,23,8,2020-11-12 21:46:52.674
11,7,2,9,38,23,0,25,2020-11-12 21:46:52.680
11,7,2,9,38,23,0,25,2020-11-12 21:46:52.685
11,7,2,9,38,23,0,25,2020-11-12 21:46:52.691
11,7,2,9,38,23,0,25,2020-11-12 21:46:52.697
3,-8,-16,-42,3,2,2,46,2020-11-12 21:46:52.703
7,-4,-2,3,13,-13,-6,-7,2020-11-12 21:46:52.709
-12,-9,-12,-2,4,-7,18,-28,2020-11-12 21:46:52.715
-12,-9,-12,-2,4,-7,18,-28,2020-11-12 21:46:52.721
-12,-9,-12,-2,4,-7,18,-28,2020-11-12 21:46:52.734
-8,-14,-23,-28,-40,-7,48,-1,2020-11-12 21:46:52.739
-8,-14,-23,-28,-40,-7,48,-1,2020-11-12 21:46:52.747
-9,-3,-6,19,20,-16,-21,-11,2020-11-12 21:46:52.753
1,9,25,28,6,4,19,2,2020-11-12 21:46:52.759
1,9,25,28,6,4,19,2,2020-11-12 21:46:52.765
1,9,25,28,6,4,19,2,2020-11-12 21:46:52.773
3,3,-13,6,-24,-7,-46,-6,2020-11-12 21:46:52.779
3,3,-13,6,-24,-7,-46,-6,2020-11-12 21:46:52.785
12,8,15,49,9,5,44,11,2020-11-12 21:46:52.792
0,4,-11,-15,-16,15,1,-7,2020-11-12 21:46:52.797
0,4,-11,-15,-16,15,1,-7,2020-11-12 21:46:52.804
0,4,-11,-15,-16,15,1,-7,2020-11-12 21:46:52.810
-4,1,-10,-5,12,-2,-32,-56,2020-11-12 21:46:52.815
5,-32,-4,-21,-8,-11,-10,6,2020-11-12 21:46:52.822
9,11,16,46,6,40,64,21,2020-11-12 21:46:52.828
9,11,16,46,6,40,64,21,2020-11-12 21:46:52.834
-1,14,-14,24,1,-36,27,11,2020-11-12 21:46:52.840
-1,14,-14,24,1,-36,27,11,2020-11-12 21:46:52.846
3,-8,2,5,-11,-3,47,13,2020-11-12 21:46:52.852
0,20,21,-9,20,5,-11,4,2020-11-12 21:46:52.858
0,20,21,-9,20,5,-11,4,2020-11-12 21:46:52.864
0,20,21,-9,20,5,-11,4,2020-11-12 21:46:52.870
-5,-16,31,5,7,-24,-27,-1,2020-11-12 21:46:52.878
1,-12,-13,-20,13,-7,-19,-10,2020-11-12 21:46:52.883
-5,14,8,-19,0,2,-70,-25,2020-11-12 21:46:52.890
-1,-8,-13,17,8,-1,0,0,2020-11-12 21:46:52.896
-1,-8,-13,17,8,-1,0,0,2020-11-12 21:46:52.902
-2,24,25,-29,-9,-2,-32,-6,2020-11-12 21:46:52.908
-2,24,25,-29,-9,-2,-32,-6,2020-11-12 21:46:52.914
-9,3,13,-23,-4,15,-1,-7,2020-11-12 21:46:52.919
-9,3,13,-23,-4,15,-1,-7,2020-11-12 21:46:52.927
-3,16,-9,-14,-7,-13,20,-4,2020-11-12 21:46:52.942
-7,-4,2,4,-3,-4,28,4,2020-11-12 21:46:52.948
-7,-4,2,4,-3,-4,28,4,2020-11-12 21:46:52.954
40,23,29,22,0,-2,-44,52,2020-11-12 21:46:52.960
40,23,29,22,0,-2,-44,52,2020-11-12 21:46:52.966
-5,-13,-21,-17,-43,-37,-58,-23,2020-11-12 21:46:52.974
-16,-6,-9,-7,-10,-12,-17,-48,2020-11-12 21:46:52.979
-16,-6,-9,-7,-10,-12,-17,-48,2020-11-12 21:46:52.985
10,-5,-17,10,22,-24,36,27,2020-11-12 21:46:52.992
10,-5,-17,10,22,-24,36,27,2020-11-12 21:46:52.997
10,-5,-17,10,22,-24,36,27,2020-11-12 21:46:53.003
7,-1,-6,0,-19,99,94,35,2020-11-12 21:46:53.010
-15,-1,-5,8,0,-21,84,-10,2020-11-12 21:46:53.017
-15,-1,-5,8,0,-21,84,-10,2020-11-12 21:46:53.025
-26,-21,-17,-13,-23,-28,-37,-13,2020-11-12 21:46:53.030
-26,-21,-17,-13,-23,-28,-37,-13,2020-11-12 21:46:53.036
10,9,-1,-15,-27,83,71,32,2020-11-12 21:46:53.043
10,9,-1,-15,-27,83,71,32,2020-11-12 21:46:53.048
-14,0,27,-13,-3,-2,-22,-19,2020-11-12 21:46:53.054
-14,0,27,-13,-3,-2,-22,-19,2020-11-12 21:46:53.061
29,45,16,-37,19,0,-3,30,2020-11-12 21:46:53.067
29,45,16,-37,19,0,-3,30,2020-11-12 21:46:53.075
8,-9,8,-36,14,26,33,30,2020-11-12 21:46:53.080
8,-9,8,-36,14,26,33,30,2020-11-12 21:46:53.086
2,-33,7,25,26,-5,-22,-10,2020-11-12 21:46:53.093
10,20,2,16,5,49,35,20,2020-11-12 21:46:53.100
10,20,2,16,5,49,35,20,2020-11-12 21:46:53.107
-2,3,-37,37,11,0,39,-9,2020-11-12 21:46:53.112
7,7,-10,5,-114,19,-31,-19,2020-11-12 21:46:53.118
7,7,-10,5,-114,19,-31,-19,2020-11-12 21:46:53.125
-3,5,-6,20,11,6,26,-14,2020-11-12 21:46:53.132
-10,-9,-7,17,34,0,-16,-8,2020-11-12 21:46:53.147
22,9,13,22,-13,-28,-43,-24,2020-11-12 21:46:53.153
-20,-21,-14,-21,32,-42,-81,-24,2020-11-12 21:46:53.160
-20,-21,-14,-21,32,-42,-81,-24,2020-11-12 21:46:53.167
5,-9,-6,-21,-7,-53,-80,-26,2020-11-12 21:46:53.174
-12,-7,-17,0,-1,-54,-6,-10,2020-11-12 21:46:53.182
-15,-14,-1,-7,13,18,13,78,2020-11-12 21:46:53.188
-15,-14,-1,-7,13,18,13,78,2020-11-12 21:46:53.195
29,12,3,20,14,-6,10,50,2020-11-12 21:46:53.200
29,12,3,20,14,-6,10,50,2020-11-12 21:46:53.208
-8,-16,-10,-28,-16,16,15,10,2020-11-12 21:46:53.215
-8,-18,-20,10,-5,-13,13,-4,2020-11-12 21:46:53.225
-26,-15,21,-53,14,-3,-51,-49,2020-11-12 21:46:53.231
-26,-15,21,-53,14,-3,-51,-49,2020-11-12 21:46:53.241
-3,2,-54,6,-17,21,1,-12,2020-11-12 21:46:53.250
15,44,-42,-19,-12,-6,68,33,2020-11-12 21:46:53.260
15,44,-42,-19,-12,-6,68,33,2020-11-12 21:46:53.267
-15,-47,-24,-45,-8,7,15,-14,2020-11-12 21:46:53.275
-15,-47,-24,-45,-8,7,15,-14,2020-11-12 21:46:53.282
2,23,-3,-10,12,32,28,7,2020-11-12 21:46:53.289
2,23,-3,-10,12,32,28,7,2020-11-12 21:46:53.297
-3,-6,31,22,-2,-7,-65,-19,2020-11-12 21:46:53.304
-4,-24,42,15,3,-8,15,10,2020-11-12 21:46:53.311
-3,27,43,17,-1,-4,-23,-20,2020-11-12 21:46:53.319
-3,27,43,17,-1,-4,-23,-20,2020-11-12 21:46:53.326
-3,-9,-27,10,-4,-9,12,-5,2020-11-12 21:46:53.333
36,20,-10,8,-6,-27,-73,-37,2020-11-12 21:46:53.347
36,20,-10,8,-6,-27,-73,-37,2020-11-12 21:46:53.352
36,20,-10,8,-6,-27,-73,-37,2020-11-12 21:46:53.359
-24,-19,-16,-10,-29,1,-54,30,2020-11-12 21:46:53.365
0,5,-9,-8,-31,31,94,-7,2020-11-12 21:46:53.371
3,-10,-11,-2,-30,-9,96,1,2020-11-12 21:46:53.378
3,-10,-11,-2,-30,-9,96,1,2020-11-12 21:46:53.384
0,17,16,30,-28,74,64,5,2020-11-12 21:46:53.390
0,17,16,30,-28,74,64,5,2020-11-12 21:46:53.395
-17,-9,-13,-11,-5,-17,29,-29,2020-11-12 21:46:53.401
-17,-9,-13,-11,-5,-17,29,-29,2020-11-12 21:46:53.407
0,2,-1,-23,8,-106,-4,-10,2020-11-12 21:46:53.413
-13,-8,11,27,-33,52,56,-15,2020-11-12 21:46:53.418
8,-1,-19,-21,32,-15,25,29,2020-11-12 21:46:53.426
8,8,22,31,22,-9,-69,13,2020-11-12 21:46:53.432
16,22,32,-48,15,-11,5,32,2020-11-12 21:46:53.437
16,22,32,-48,15,-11,5,32,2020-11-12 21:46:53.444
-1,-5,-1,18,22,-1,-77,-12,2020-11-12 21:46:53.450
-1,-5,-1,18,22,-1,-77,-12,2020-11-12 21:46:53.457
-2,12,-15,16,-1,36,11,-9,2020-11-12 21:46:53.463
-2,12,-15,16,-1,36,11,-9,2020-11-12 21:46:53.468
-13,-45,38,18,-11,9,102,7,2020-11-12 21:46:53.475
-3,17,29,-9,-3,14,83,17,2020-11-12 21:46:53.481
17,26,-14,12,1,-7,36,15,2020-11-12 21:46:53.487
17,26,-14,12,1,-7,36,15,2020-11-12 21:46:53.494
-16,-17,-9,14,27,-41,-58,-17,2020-11-12 21:46:53.499
-16,-17,-9,14,27,-41,-58,-17,2020-11-12 21:46:53.505
-8,-7,-14,-6,-13,-21,-42,-3,2020-11-12 21:46:53.512
30,9,-11,20,-4,-16,-48,51,2020-11-12 21:46:53.517
30,9,-11,20,-4,-16,-48,51,2020-11-12 21:46:53.524
30,9,-11,20,-4,-16,-48,51,2020-11-12 21:46:53.529
5,4,-5,-4,20,23,13,-5,2020-11-12 21:46:53.535
-11,-12,9,19,-7,3,-18,-27,2020-11-12 21:46:53.550
-15,-13,-15,-9,-1,-21,-60,-42,2020-11-12 21:46:53.556
-12,-14,-8,9,4,20,48,-19,2020-11-12 21:46:53.562
-12,-14,-8,9,4,20,48,-19,2020-11-12 21:46:53.567
19,10,-15,-9,1,12,17,61,2020-11-12 21:46:53.574
-29,-13,-4,7,3,49,-46,-14,2020-11-12 21:46:53.580
-29,-13,-4,7,3,49,-46,-14,2020-11-12 21:46:53.585
-1,-3,-1,-2,1,3,-27,53,2020-11-12 21:46:53.592
-1,-3,-1,-2,1,3,-27,53,2020-11-12 21:46:53.598
-1,-3,-1,-2,1,3,-27,53,2020-11-12 21:46:53.603
-16,-4,-3,3,-9,-44,-100,-90,2020-11-12 21:46:53.610
4,-22,-12,-40,4,19,-3,4,2020-11-12 21:46:53.616
4,-22,-12,-40,4,19,-3,4,2020-11-12 21:46:53.640
3,7,10,117,55,38,102,50,2020-11-12 21:46:53.645
0,-1,-28,30,-23,11,30,-3,2020-11-12 21:46:53.651
0,-1,-28,30,-23,11,30,-3,2020-11-12 21:46:53.658
5,-2,-22,7,2,-30,1,15,2020-11-12 21:46:53.664
5,-2,-22,7,2,-30,1,15,2020-11-12 21:46:53.669
-16,13,26,-14,15,-12,-39,-41,2020-11-12 21:46:53.676
6,41,36,-34,-41,-80,2,1,2020-11-12 21:46:53.682
-5,-4,-7,-14,-16,-59,-71,-29,2020-11-12 21:46:53.688
-5,-4,-7,-14,-16,-59,-71,-29,2020-11-12 21:46:53.694
13,11,21,-6,-19,-49,-25,-1,2020-11-12 21:46:53.700
13,11,21,-6,-19,-49,-25,-1,2020-11-12 21:46:53.707
31,1,-11,19,24,3,-74,74,2020-11-12 21:46:53.713
31,1,-11,19,24,3,-74,74,2020-11-12 21:46:53.718
5,-8,-6,12,44,72,24,42,2020-11-12 21:46:53.724
5,-8,-6,12,44,72,24,42,2020-11-12 21:46:53.729
-9,-1,-2,12,10,-25,-31,-4,2020-11-12 21:46:53.735
-3,-6,-16,-22,-22,-8,-30,-24,2020-11-12 21:46:53.750
5,5,9,7,14,58,21,4,2020-11-12 21:46:53.756
-2,-2,-11,-9,-3,53,70,4,2020-11-12 21:46:53.762
-2,-2,-11,-9,-3,53,70,4,2020-11-12 21:46:53.767
-3,-5,-11,-4,-3,18,-3,-4,2020-11-12 21:46:53.775
0,-3,2,29,-6,23,-6,-11,2020-11-12 21:46:53.780
0,-3,2,29,-6,23,-6,-11,2020-11-12 21:46:53.786
0,-3,2,29,-6,23,-6,-11,2020-11-12 21:46:53.793
-1,-14,-21,-40,1,-50,-21,0,2020-11-12 21:46:53.799
-1,-14,-21,-40,1,-50,-21,0,2020-11-12 21:46:53.805
-25,-27,-9,22,1,25,36,-16,2020-11-12 21:46:53.811
-2,5,19,-27,-10,-20,-76,-21,2020-11-12 21:46:53.817
-2,5,19,-27,-10,-20,-76,-21,2020-11-12 21:46:53.824
-2,5,19,-27,-10,-20,-76,-21,2020-11-12 21:46:53.829
-9,-2,4,-78,-23,-36,37,-24,2020-11-12 21:46:53.836
-5,0,-7,19,5,-22,-68,-30,2020-11-12 21:46:53.843
-5,0,-7,19,5,-22,-68,-30,2020-11-12 21:46:53.848
-5,0,-7,19,5,-22,-68,-30,2020-11-12 21:46:53.854
1,-3,-8,11,-2,1,18,24,2020-11-12 21:46:53.860
1,-3,-8,11,-2,1,18,24,2020-11-12 21:46:53.867
-9,15,11,22,8,-6,37,-19,2020-11-12 21:46:53.872
-9,15,11,22,8,-6,37,-19,2020-11-12 21:46:53.878
-9,15,11,22,8,-6,37,-19,2020-11-12 21:46:53.884
13,15,36,15,8,28,15,30,2020-11-12 21:46:53.890
-16,-7,-5,-25,-9,-15,-3,-50,2020-11-12 21:46:53.896
2,-1,0,-2,7,17,41,-29,2020-11-12 21:46:53.902
2,-1,0,-2,7,17,41,-29,2020-11-12 21:46:53.908
2,-1,0,-2,7,17,41,-29,2020-11-12 21:46:53.914
17,3,-12,-6,-13,-3,79,65,2020-11-12 21:46:53.919
17,3,-12,-6,-13,-3,79,65,2020-11-12 21:46:53.926
15,11,3,1,9,-9,-61,-66,2020-11-12 21:46:53.932
-4,-24,-18,14,-31,94,-27,-42,2020-11-12 21:46:53.937
-4,-24,-18,14,-31,94,-27,-42,2020-11-12 21:46:53.951
36,24,-11,2,34,-32,19,82,2020-11-12 21:46:53.958
-13,-6,20,30,17,14,3,-26,2020-11-12 21:46:53.964
-13,-6,20,30,17,14,3,-26,2020-11-12 21:46:53.969
-29,-27,-17,11,-24,-47,-86,-19,2020-11-12 21:46:53.976
6,14,-8,-21,1,-19,-3,-1,2020-11-12 21:46:53.982
6,14,-8,-21,1,-19,-3,-1,2020-11-12 21:46:53.986
16,33,4,1,-12,-1,-59,27,2020-11-12 21:46:53.993
-29,-10,18,-13,-4,-21,29,-6,2020-11-12 21:46:53.998
-29,-10,18,-13,-4,-21,29,-6,2020-11-12 21:46:54.004
20,6,13,13,-32,85,40,22,2020-11-12 21:46:54.011
20,6,13,13,-32,85,40,22,2020-11-12 21:46:54.017
7,6,9,4,5,-24,11,26,2020-11-12 21:46:54.024
7,6,9,4,5,-24,11,26,2020-11-12 21:46:54.029
0,11,18,14,28,27,5,-63,2020-11-12 21:46:54.035
-25,-25,-32,-18,-8,1,-38,-56,2020-11-12 21:46:54.042
26,6,15,-1,4,-8,-51,-15,2020-11-12 21:46:54.047
26,6,15,-1,4,-8,-51,-15,2020-11-12 21:46:54.053
26,6,15,-1,4,-8,-51,-15,2020-11-12 21:46:54.059
10,8,0,10,12,-26,-33,-34,2020-11-12 21:46:54.065
-22,-4,2,-12,1,-12,-32,-32,2020-11-12 21:46:54.071
-22,-4,2,-12,1,-12,-32,-32,2020-11-12 21:46:54.078
1,5,-3,-6,8,18,-15,26,2020-11-12 21:46:54.084
1,5,-3,-6,8,18,-15,26,2020-11-12 21:46:54.092
-11,-11,-14,-9,-1,17,86,25,2020-11-12 21:46:54.099
-11,-11,-14,-9,-1,17,86,25,2020-11-12 21:46:54.105
-4,0,6,-14,33,38,68,2,2020-11-12 21:46:54.113
-16,-3,4,16,5,7,6,-29,2020-11-12 21:46:54.118
-16,-3,4,16,5,7,6,-29,2020-11-12 21:46:54.125
-33,-28,-19,-38,-48,-25,-77,-19,2020-11-12 21:46:54.131
-33,-28,-19,-38,-48,-25,-77,-19,2020-11-12 21:46:54.136
39,39,35,65,7,25,28,62,2020-11-12 21:46:54.143
39,39,35,65,7,25,28,62,2020-11-12 21:46:54.159
-9,-18,-39,-67,1,-77,-28,-8,2020-11-12 21:46:54.164
-8,5,10,-15,-15,-32,46,9,2020-11-12 21:46:54.170
-8,5,10,-15,-15,-32,46,9,2020-11-12 21:46:54.176
9,6,-3,0,-34,-43,-70,-11,2020-11-12 21:46:54.183
9,6,-3,0,-34,-43,-70,-11,2020-11-12 21:46:54.188
-4,-10,-11,23,42,20,-32,-1,2020-11-12 21:46:54.195
-5,-16,0,-25,21,-31,-20,9,2020-11-12 21:46:54.200
-5,-16,0,-25,21,-31,-20,9,2020-11-12 21:46:54.206
-5,-16,0,-25,21,-31,-20,9,2020-11-12 21:46:54.212
-2,-2,18,16,0,-45,-21,-13,2020-11-12 21:46:54.218
-2,-2,18,16,0,-45,-21,-13,2020-11-12 21:46:54.225
11,15,-7,3,4,21,18,27,2020-11-12 21:46:54.232
30,14,1,-11,-6,17,12,30,2020-11-12 21:46:54.237
30,14,1,-11,-6,17,12,30,2020-11-12 21:46:54.244
30,14,1,-11,-6,17,12,30,2020-11-12 21:46:54.249
15,4,7,-11,-3,-4,-4,-15,2020-11-12 21:46:54.255
-2,0,0,17,-3,62,21,9,2020-11-12 21:46:54.262
-2,0,0,17,-3,62,21,9,2020-11-12 21:46:54.267
-2,0,0,17,-3,62,21,9,2020-11-12 21:46:54.274
-2,0,0,17,-3,62,21,9,2020-11-12 21:46:54.280
-15,-8,-15,-6,-2,27,126,-33,2020-11-12 21:46:54.286
-9,-1,2,-11,14,9,41,-8,2020-11-12 21:46:54.293
2,11,6,-25,15,11,-36,12,2020-11-12 21:46:54.299
2,11,6,-25,15,11,-36,12,2020-11-12 21:46:54.305
-4,-4,-5,-27,-33,28,-26,-10,2020-11-12 21:46:54.312
-4,-4,-5,-27,-33,28,-26,-10,2020-11-12 21:46:54.318
-32,-37,1,-55,-14,-10,-59,-38,2020-11-12 21:46:54.326
-32,-37,1,-55,-14,-10,-59,-38,2020-11-12 21:46:54.332
5,14,4,64,18,-34,38,13,2020-11-12 21:46:54.337
5,14,4,64,18,-34,38,13,2020-11-12 21:46:54.344
-7,-21,-24,-50,-18,-29,67,14,2020-11-12 21:46:54.358
-13,-8,-3,11,-34,-21,27,-22,2020-11-12 21:46:54.363
-13,-8,-3,11,-34,-21,27,-22,2020-11-12 21:46:54.368
-5,3,15,34,41,25,70,-73,2020-11-12 21:46:54.375
12,3,-3,12,17,45,40,33,2020-11-12 21:46:54.381
12,3,-3,12,17,45,40,33,2020-11-12 21:46:54.387
12,3,-3,12,17,45,40,33,2020-11-12 21:46:54.394
-19,-3,3,4,12,23,42,-48,2020-11-12 21:46:54.399
7,-4,-8,-18,-53,-89,-128,-46,2020-11-12 21:46:54.405
-6,1,4,9,15,-7,16,16,2020-11-12 21:46:54.412
-16,-7,-23,-18,-14,30,79,10,2020-11-12 21:46:54.417
-16,-7,-23,-18,-14,30,79,10,2020-11-12 21:46:54.424
-16,-7,-23,-18,-14,30,79,10,2020-11-12 21:46:54.429
6,8,15,2,3,11,-21,-14,2020-11-12 21:46:54.435
24,20,15,4,3,12,-9,3,2020-11-12 21:46:54.442
24,20,15,4,3,12,-9,3,2020-11-12 21:46:54.448
4,4,-2,-5,-13,4,-20,84,2020-11-12 21:46:54.454
4,4,-2,-5,-13,4,-20,84,2020-11-12 21:46:54.460
14,13,31,27,33,12,31,41,2020-11-12 21:46:54.466
-25,-27,-6,-8,-31,11,29,-28,2020-11-12 21:46:54.472
-1,-3,-5,54,15,54,-9,14,2020-11-12 21:46:54.478
-1,-3,-5,54,15,54,-9,14,2020-11-12 21:46:54.483
-1,-3,-5,54,15,54,-9,14,2020-11-12 21:46:54.489
-26,-16,-6,8,-15,-60,-68,-46,2020-11-12 21:46:54.495
-14,0,2,13,-21,-34,-92,-65,2020-11-12 21:46:54.501
-14,0,2,13,-21,-34,-92,-65,2020-11-12 21:46:54.507
-14,0,2,13,-21,-34,-92,-65,2020-11-12 21:46:54.513
10,-6,-60,-94,-9,-2,28,36,2020-11-12 21:46:54.519
-15,-76,-53,-124,-8,20,39,10,2020-11-12 21:46:54.526
-15,-76,-53,-124,-8,20,39,10,2020-11-12 21:46:54.532
-15,-76,-53,-124,-8,20,39,10,2020-11-12 21:46:54.537
-15,-76,-53,-124,-8,20,39,10,2020-11-12 21:46:54.545
-19,-24,-18,4,-11,-7,-20,-17,2020-11-12 21:46:54.560
6,-7,12,14,23,27,-17,26,2020-11-12 21:46:54.566
6,-7,12,14,23,27,-17,26,2020-11-12 21:46:54.572
18,27,21,20,-8,-17,17,40,2020-11-12 21:46:54.579
-11,-7,-10,-14,13,22,-31,-8,2020-11-12 21:46:54.585
-11,-7,-10,-14,13,22,-31,-8,2020-11-12 21:46:54.592
10,8,20,12,-25,29,44,44,2020-11-12 21:46:54.597
-11,-1,-19,-21,5,28,-26,-72,2020-11-12 21:46:54.603
-11,-1,-19,-21,5,28,-26,-72,2020-11-12 21:46:54.610
17,6,11,6,37,-50,-114,-14,2020-11-12 21:46:54.616
-12,6,4,29,27,-32,23,37,2020-11-12 21:46:54.622
-12,6,4,29,27,-32,23,37,2020-11-12 21:46:54.628
1,9,4,-13,-46,13,-28,-51,2020-11-12 21:46:54.634
1,9,4,-13,-46,13,-28,-51,2020-11-12 21:46:54.639
6,7,-8,-9,15,4,-48,-1,2020-11-12 21:46:54.645
6,7,-8,-9,15,4,-48,-1,2020-11-12 21:46:54.651
6,7,-8,-9,15,4,-48,-1,2020-11-12 21:46:54.658
14,20,9,60,-24,-37,107,13,2020-11-12 21:46:54.664
14,20,9,60,-24,-37,107,13,2020-11-12 21:46:54.669
-10,28,36,-57,-11,-3,-54,-39,2020-11-12 21:46:54.676
1,-25,0,-42,-6,-2,-3,1,2020-11-12 21:46:54.682
1,-25,0,-42,-6,-2,-3,1,2020-11-12 21:46:54.687
1,-25,0,-42,-6,-2,-3,1,2020-11-12 21:46:54.693
11,25,9,-38,28,6,12,6,2020-11-12 21:46:54.699
-14,-10,18,49,-18,2,-38,-16,2020-11-12 21:46:54.705
-14,-10,18,49,-18,2,-38,-16,2020-11-12 21:46:54.712
-13,-48,-30,-13,-21,-11,-20,-53,2020-11-12 21:46:54.717
-7,-4,-30,18,13,96,78,-1,2020-11-12 21:46:54.724
-7,-4,-30,18,13,96,78,-1,2020-11-12 21:46:54.730
-29,-9,-18,12,-4,18,-19,-68,2020-11-12 21:46:54.735
14,13,8,-19,-39,-54,2,-79,2020-11-12 21:46:54.741
14,13,8,-19,-39,-54,2,-79,2020-11-12 21:46:54.747
14,13,8,-19,-39,-54,2,-79,2020-11-12 21:46:54.762
43,14,3,-11,13,108,24,51,2020-11-12 21:46:54.767
43,14,3,-11,13,108,24,51,2020-11-12 21:46:54.774
-12,8,6,2,-2,-33,8,13,2020-11-12 21:46:54.780
-12,8,6,2,-2,-33,8,13,2020-11-12 21:46:54.786
32,21,11,-12,7,-3,-27,43,2020-11-12 21:46:54.793
32,21,11,-12,7,-3,-27,43,2020-11-12 21:46:54.798
16,27,23,46,7,-13,-17,19,2020-11-12 21:46:54.804
16,27,23,46,7,-13,-17,19,2020-11-12 21:46:54.811
-14,-16,9,71,9,-15,-13,5,2020-11-12 21:46:54.817
-17,2,5,-3,16,-18,-6,31,2020-11-12 21:46:54.823
-17,2,5,-3,16,-18,-6,31,2020-11-12 21:46:54.847
12,-6,0,-16,-3,8,-9,53,2020-11-12 21:46:54.853
12,-6,0,-16,-3,8,-9,53,2020-11-12 21:46:54.859
-8,-8,11,27,7,-14,4,-9,2020-11-12 21:46:54.865
-8,-8,11,27,7,-14,4,-9,2020-11-12 21:46:54.871
-9,24,-9,-23,4,-1,14,-10,2020-11-12 21:46:54.878
-9,24,-9,-23,4,-1,14,-10,2020-11-12 21:46:54.884
-15,-2,55,-3,-42,-6,-31,-19,2020-11-12 21:46:54.892
9,-3,-5,24,15,28,101,22,2020-11-12 21:46:54.897
-9,-23,-17,-26,-7,-8,19,6,2020-11-12 21:46:54.903
-9,-23,-17,-26,-7,-8,19,6,2020-11-12 21:46:54.909
-4,-15,-13,-2,1,-10,52,55,2020-11-12 21:46:54.915
-11,-24,-26,-5,0,-24,-80,-44,2020-11-12 21:46:54.921
-11,-24,-26,-5,0,-24,-80,-44,2020-11-12 21:46:54.928
4,2,-2,-5,-1,59,24,-13,2020-11-12 21:46:54.933
4,2,-2,-5,-1,59,24,-13,2020-11-12 21:46:54.939
3,-6,-11,-29,-1,-30,-20,5,2020-11-12 21:46:54.945
3,-6,-11,-29,-1,-30,-20,5,2020-11-12 21:46:54.951
2,-2,1,-10,-18,-20,-53,-22,2020-11-12 21:46:54.965
-18,-20,-4,-32,-10,-13,29,-25,2020-11-12 21:46:54.971
-18,-20,-4,-32,-10,-13,29,-25,2020-11-12 21:46:54.977
-6,-2,-8,1,-1,-19,-18,-36,2020-11-12 21:46:54.983
-6,-2,-8,1,-1,-19,-18,-36,2020-11-12 21:46:54.989
6,3,4,2,-9,13,48,72,2020-11-12 21:46:54.995
6,3,4,2,-9,13,48,72,2020-11-12 21:46:55.000
6,3,4,2,-9,13,48,72,2020-11-12 21:46:55.006
1,-5,-7,-28,-3,-16,-4,9,2020-11-12 21:46:55.013
1,-5,-7,-28,-3,-16,-4,9,2020-11-12 21:46:55.019
1,5,-4,-13,13,-16,-91,-34,2020-11-12 21:46:55.026
5,2,0,-11,0,23,19,7,2020-11-12 21:46:55.032
5,2,0,-11,0,23,19,7,2020-11-12 21:46:55.037
-1,9,2,19,10,22,-5,21,2020-11-12 21:46:55.044
-1,9,2,19,10,22,-5,21,2020-11-12 21:46:55.049
-8,3,13,28,2,-45,-26,-28,2020-11-12 21:46:55.055
-8,3,13,28,2,-45,-26,-28,2020-11-12 21:46:55.062
12,4,6,-5,-22,-3,-1,19,2020-11-12 21:46:55.067
12,4,6,-5,-22,-3,-1,19,2020-11-12 21:46:55.074
-13,-21,4,58,18,7,1,3,2020-11-12 21:46:55.080
-13,-21,4,58,18,7,1,3,2020-11-12 21:46:55.085
-13,-21,4,58,18,7,1,3,2020-11-12 21:46:55.092
-13,-21,4,58,18,7,1,3,2020-11-12 21:46:55.097
-13,-20,-38,-66,-8,-3,13,-3,2020-11-12 21:46:55.103
-13,-20,-38,-66,-8,-3,13,-3,2020-11-12 21:46:55.109
-16,-27,-18,-13,-31,15,-35,-15,2020-11-12 21:46:55.115
-16,-27,-18,-13,-31,15,-35,-15,2020-11-12 21:46:55.121
3,-1,2,15,3,31,16,2,2020-11-12 21:46:55.128
3,-1,2,15,3,31,16,2,2020-11-12 21:46:55.134
-9,-4,0,-13,-33,-35,-7,-3,2020-11-12 21:46:55.140
-9,-4,0,-13,-33,-35,-7,-3,2020-11-12 21:46:55.147
15,15,41,48,24,-4,-60,23,2020-11-12 21:46:55.152
15,15,41,48,24,-4,-60,23,2020-11-12 21:46:55.167
-7,-13,-8,4,7,-1,-8,-14,2020-11-12 21:46:55.173
-7,-13,-8,4,7,-1,-8,-14,2020-11-12 21:46:55.180
6,9,4,-2,8,-6,-29,5,2020-11-12 21:46:55.186
6,9,4,-2,8,-6,-29,5,2020-11-12 21:46:55.193
-9,-6,-41,-14,-8,-12,-49,-38,2020-11-12 21:46:55.199
-9,-6,-41,-14,-8,-12,-49,-38,2020-11-12 21:46:55.204
-9,-6,-41,-14,-8,-12,-49,-38,2020-11-12 21:46:55.210
1,26,8,0,6,8,-27,-1,2020-11-12 21:46:55.216
-22,-37,-4,-2,21,-12,-9,-59,2020-11-12 21:46:55.223
-22,-37,-4,-2,21,-12,-9,-59,2020-11-12 21:46:55.229
-22,-37,-4,-2,21,-12,-9,-59,2020-11-12 21:46:55.235
-22,-37,-4,-2,21,-12,-9,-59,2020-11-12 21:46:55.242
1,31,15,-35,24,21,21,11,2020-11-12 21:46:55.247
1,31,15,-35,24,21,21,11,2020-11-12 21:46:55.254
12,9,-39,-4,4,12,48,25,2020-11-12 21:46:55.260
12,9,-39,-4,4,12,48,25,2020-11-12 21:46:55.266
-8,7,35,13,-18,-23,-16,-2,2020-11-12 21:46:55.272
-8,7,35,13,-18,-23,-16,-2,2020-11-12 21:46:55.278
10,-10,-2,62,14,49,-4,19,2020-11-12 21:46:55.285
10,-10,-2,62,14,49,-4,19,2020-11-12 21:46:55.292
3,-9,4,-30,-7,67,18,-4,2020-11-12 21:46:55.298
8,15,33,5,-23,86,46,18,2020-11-12 21:46:55.304
8,15,33,5,-23,86,46,18,2020-11-12 21:46:55.312
-1,36,-9,7,12,-18,24,-6,2020-11-12 21:46:55.318
-4,-11,5,-5,13,-32,-20,3,2020-11-12 21:46:55.324
-4,-11,5,-5,13,-32,-20,3,2020-11-12 21:46:55.331
-6,2,1,10,2,-1,1,-9,2020-11-12 21:46:55.336
-13,-9,-4,1,-16,-33,-17,7,2020-11-12 21:46:55.343
-13,-9,-4,1,-16,-33,-17,7,2020-11-12 21:46:55.349
5,1,7,0,-1,-24,-63,-76,2020-11-12 21:46:55.355
5,1,7,0,-1,-24,-63,-76,2020-11-12 21:46:55.370
-7,-8,3,9,3,-11,16,-4,2020-11-12 21:46:55.377
-9,-3,-7,-17,0,-14,24,27,2020-11-12 21:46:55.383
-9,-3,-7,-17,0,-14,24,27,2020-11-12 21:46:55.389
-6,-13,-9,5,-14,-5,25,30,2020-11-12 21:46:55.396
-22,-19,2,-15,9,21,-64,-40,2020-11-12 21:46:55.402
-22,-19,2,-15,9,21,-64,-40,2020-11-12 21:46:55.408
14,51,51,-1,23,29,38,36,2020-11-12 21:46:55.414
14,51,51,-1,23,29,38,36,2020-11-12 21:46:55.419
0,-33,5,-12,12,-18,10,-4,2020-11-12 21:46:55.426
0,-33,5,-12,12,-18,10,-4,2020-11-12 21:46:55.432
22,21,-28,-11,-12,3,26,16,2020-11-12 21:46:55.438
-9,-33,5,-43,2,-14,22,-32,2020-11-12 21:46:55.444
-9,-33,5,-43,2,-14,22,-32,2020-11-12 21:46:55.450
-9,-33,5,-43,2,-14,22,-32,2020-11-12 21:46:55.455
-3,13,-16,-14,-20,-3,14,0,2020-11-12 21:46:55.463
-3,13,-16,-14,-20,-3,14,0,2020-11-12 21:46:55.468
-6,-10,-38,10,0,8,3,-6,2020-11-12 21:46:55.474
-6,-10,-38,10,0,8,3,-6,2020-11-12 21:46:55.480
0,21,-2,6,-3,13,1,-22,2020-11-12 21:46:55.486
0,21,-2,6,-3,13,1,-22,2020-11-12 21:46:55.493
0,-6,9,31,21,6,14,2,2020-11-12 21:46:55.498
3,11,-19,2,-5,4,28,6,2020-11-12 21:46:55.504
3,11,-19,2,-5,4,28,6,2020-11-12 21:46:55.510
3,11,-19,2,-5,4,28,6,2020-11-12 21:46:55.516
-12,-7,-2,12,-12,-15,22,-12,2020-11-12 21:46:55.522
-12,-7,-2,12,-12,-15,22,-12,2020-11-12 21:46:55.528
0,-10,3,-17,-3,-26,-45,24,2020-11-12 21:46:55.534
0,-10,3,-17,-3,-26,-45,24,2020-11-12 21:46:55.539
0,-10,3,-17,-3,-26,-45,24,2020-11-12 21:46:55.547
12,20,9,22,7,-9,22,-20,2020-11-12 21:46:55.553
12,-4,-2,0,-1,-10,8,0,2020-11-12 21:46:55.559
12,-4,-2,0,-1,-10,8,0,2020-11-12 21:46:55.573
-34,0,7,17,0,-19,25,-55,2020-11-12 21:46:55.580
-19,-5,4,-17,-67,-36,0,-48,2020-11-12 21:46:55.586
-19,-5,4,-17,-67,-36,0,-48,2020-11-12 21:46:55.593
-21,-11,-10,-13,5,25,-31,-12,2020-11-12 21:46:55.599
26,8,-1,-3,-6,-14,30,98,2020-11-12 21:46:55.605
26,8,-1,-3,-6,-14,30,98,2020-11-12 21:46:55.613
12,14,8,-5,-14,-1,-40,-7,2020-11-12 21:46:55.618
-31,-42,-9,61,22,12,-83,-49,2020-11-12 21:46:55.624
-31,-42,-9,61,22,12,-83,-49,2020-11-12 21:46:55.630
-31,-42,-9,61,22,12,-83,-49,2020-11-12 21:46:55.636
26,51,21,35,29,8,14,33,2020-11-12 21:46:55.643
26,51,21,35,29,8,14,33,2020-11-12 21:46:55.648
-14,47,-66,51,7,22,21,-29,2020-11-12 21:46:55.654
-14,47,-66,51,7,22,21,-29,2020-11-12 21:46:55.661
16,1,11,24,6,13,-15,20,2020-11-12 21:46:55.667
16,1,11,24,6,13,-15,20,2020-11-12 21:46:55.673
-15,-2,-4,-41,-31,-38,-50,-31,2020-11-12 21:46:55.679
8,11,1,-35,18,-12,20,21,2020-11-12 21:46:55.685
8,11,1,-35,18,-12,20,21,2020-11-12 21:46:55.690
8,11,1,-35,18,-12,20,21,2020-11-12 21:46:55.697
-13,-6,2,-16,-8,-62,-90,-103,2020-11-12 21:46:55.703
-13,-6,2,-16,-8,-62,-90,-103,2020-11-12 21:46:55.710
-13,-6,2,-16,-8,-62,-90,-103,2020-11-12 21:46:55.715
-13,-6,2,-16,-8,-62,-90,-103,2020-11-12 21:46:55.721
-11,-18,1,-10,14,1,-21,-13,2020-11-12 21:46:55.728
-25,1,-4,-9,33,91,78,-6,2020-11-12 21:46:55.733
23,18,22,-5,30,8,-7,-26,2020-11-12 21:46:55.739
27,-4,-5,-10,-42,-13,21,81,2020-11-12 21:46:55.746
27,-4,-5,-10,-42,-13,21,81,2020-11-12 21:46:55.751
27,-4,-5,-10,-42,-13,21,81,2020-11-12 21:46:55.758
-1,8,10,12,26,77,-7,2,2020-11-12 21:46:55.764
-1,8,10,12,26,77,-7,2,2020-11-12 21:46:55.779
15,18,13,10,-13,40,79,28,2020-11-12 21:46:55.784
15,18,13,10,-13,40,79,28,2020-11-12 21:46:55.790
-23,-15,-21,-23,0,-3,59,-13,2020-11-12 21:46:55.797
17,8,15,37,23,18,-26,42,2020-11-12 21:46:55.803
17,8,15,37,23,18,-26,42,2020-11-12 21:46:55.809
17,8,15,37,23,18,-26,42,2020-11-12 21:46:55.815
0,-4,25,4,-31,-55,-22,-10,2020-11-12 21:46:55.821
0,-4,25,4,-31,-55,-22,-10,2020-11-12 21:46:55.828
-5,-28,-34,34,-6,-13,-13,0,2020-11-12 21:46:55.833
-5,-28,-34,34,-6,-13,-13,0,2020-11-12 21:46:55.839
-14,-5,-41,-44,15,-18,-46,-36,2020-11-12 21:46:55.846
-14,-5,-41,-44,15,-18,-46,-36,2020-11-12 21:46:55.852
14,31,12,-40,-20,-2,49,6,2020-11-12 21:46:55.859
0,-13,-10,-10,18,73,111,16,2020-11-12 21:46:55.865
0,-13,-10,-10,18,73,111,16,2020-11-12 21:46:55.870
0,-13,-10,-10,18,73,111,16,2020-11-12 21:46:55.877
3,-13,-18,-32,-27,-25,-61,0,2020-11-12 21:46:55.883
3,-13,-18,-32,-27,-25,-61,0,2020-11-12 21:46:55.888
3,-13,-18,-32,-27,-25,-61,0,2020-11-12 21:46:55.895
3,-13,-18,-32,-27,-25,-61,0,2020-11-12 21:46:55.900
1,51,69,29,-4,3,18,8,2020-11-12 21:46:55.905
1,51,69,29,-4,3,18,8,2020-11-12 21:46:55.913
-3,-21,17,20,-9,-5,28,15,2020-11-12 21:46:55.919
-10,-23,-34,-22,-10,-30,-9,-28,2020-11-12 21:46:55.926
-10,-23,-34,-22,-10,-30,-9,-28,2020-11-12 21:46:55.932
-10,-23,-34,-22,-10,-30,-9,-28,2020-11-12 21:46:55.937
5,1,-12,4,8,-12,-5,-12,2020-11-12 21:46:55.945
5,1,-12,4,8,-12,-5,-12,2020-11-12 21:46:55.951
-1,-2,-2,-11,12,0,-22,-46,2020-11-12 21:46:55.956
5,-3,-6,-8,-25,-7,-49,3,2020-11-12 21:46:55.963
5,-3,-6,-8,-25,-7,-49,3,2020-11-12 21:46:55.969
5,-3,-6,-8,-25,-7,-49,3,2020-11-12 21:46:55.984
13,5,2,-11,22,-19,-12,21,2020-11-12 21:46:55.989
13,5,2,-11,22,-19,-12,21,2020-11-12 21:46:55.996
-14,-15,-12,7,7,26,85,-27,2020-11-12 21:46:56.002
-14,-15,-12,7,7,26,85,-27,2020-11-12 21:46:56.007
-14,-15,-12,7,7,26,85,-27,2020-11-12 21:46:56.014
13,10,1,2,17,-16,-57,0,2020-11-12 21:46:56.019
17,-2,-9,-3,-2,-40,76,63,2020-11-12 21:46:56.025
17,-2,-9,-3,-2,-40,76,63,2020-11-12 21:46:56.031
10,12,10,5,0,43,43,23,2020-11-12 21:46:56.037
10,12,10,5,0,43,43,23,2020-11-12 21:46:56.043
-16,-2,16,5,15,-13,-57,-42,2020-11-12 21:46:56.049
-16,-2,16,5,15,-13,-57,-42,2020-11-12 21:46:56.054
7,11,-2,-6,2,-24,3,27,2020-11-12 21:46:56.079
2,27,-43,2,16,27,-27,-12,2020-11-12 21:46:56.085
2,27,-43,2,16,27,-27,-12,2020-11-12 21:46:56.091
-22,-57,-11,4,-5,6,11,-2,2020-11-12 21:46:56.096
-22,-57,-11,4,-5,6,11,-2,2020-11-12 21:46:56.102
-30,-81,14,-34,-35,-48,-46,-46,2020-11-12 21:46:56.109
-30,-81,14,-34,-35,-48,-46,-46,2020-11-12 21:46:56.114
8,19,-31,-27,7,16,-26,6,2020-11-12 21:46:56.120
8,19,-31,-27,7,16,-26,6,2020-11-12 21:46:56.127
-19,-20,-9,-6,5,58,69,-10,2020-11-12 21:46:56.133
-19,-20,-9,-6,5,58,69,-10,2020-11-12 21:46:56.138
-4,-4,-8,-12,-11,-1,-36,-6,2020-11-12 21:46:56.145
-4,-4,-8,-12,-11,-1,-36,-6,2020-11-12 21:46:56.151
-29,-6,-3,7,7,6,119,31,2020-11-12 21:46:56.156
-29,-6,-3,7,7,6,119,31,2020-11-12 21:46:56.164
-16,-6,16,8,-14,-2,15,19,2020-11-12 21:46:56.169
-16,-6,16,8,-14,-2,15,19,2020-11-12 21:46:56.184
-27,-15,5,-4,6,-36,80,34,2020-11-12 21:46:56.189
-12,-4,-10,-7,9,20,-121,-84,2020-11-12 21:46:56.196
1,-3,-2,0,12,15,-11,-5,2020-11-12 21:46:56.202
1,-3,-2,0,12,15,-11,-5,2020-11-12 21:46:56.207
1,-3,-2,0,12,15,-11,-5,2020-11-12 21:46:56.214
14,5,5,-10,-32,6,33,0,2020-11-12 21:46:56.220
1,-6,2,-15,1,7,66,4,2020-11-12 21:46:56.227
1,-6,2,-15,1,7,66,4,2020-11-12 21:46:56.233
-16,-1,-7,12,26,-10,-48,-13,2020-11-12 21:46:56.238
21,9,12,-1,1,19,-20,17,2020-11-12 21:46:56.245
21,9,12,-1,1,19,-20,17,2020-11-12 21:46:56.251
-6,-6,-30,-25,23,-29,-90,-19,2020-11-12 21:46:56.256
0,-41,-18,-29,-6,18,-38,-23,2020-11-12 21:46:56.263
0,-41,-18,-29,-6,18,-38,-23,2020-11-12 21:46:56.268
0,-41,-18,-29,-6,18,-38,-23,2020-11-12 21:46:56.274
1,-24,-16,-21,-2,-25,-53,0,2020-11-12 21:46:56.280
9,3,28,48,5,9,8,0,2020-11-12 21:46:56.287
9,3,28,48,5,9,8,0,2020-11-12 21:46:56.294
-4,6,-7,1,-13,-6,43,5,2020-11-12 21:46:56.300
1,-40,-24,-5,-4,-15,25,5,2020-11-12 21:46:56.307
7,11,-20,26,12,-19,-34,-18,2020-11-12 21:46:56.316
-7,6,48,13,11,18,2,-5,2020-11-12 21:46:56.322
-27,-2,-9,3,-3,-8,-9,-49,2020-11-12 21:46:56.328
-27,-2,-9,3,-3,-8,-9,-49,2020-11-12 21:46:56.334
-4,4,13,4,-7,-8,3,-22,2020-11-12 21:46:56.339
-4,4,13,4,-7,-8,3,-22,2020-11-12 21:46:56.346
20,29,21,15,21,53,23,43,2020-11-12 21:46:56.352
20,29,21,15,21,53,23,43,2020-11-12 21:46:56.357
9,1,12,4,-2,-19,40,18,2020-11-12 21:46:56.365
7,19,5,-5,-9,41,18,-9,2020-11-12 21:46:56.370
24,15,11,15,5,-75,-24,29,2020-11-12 21:46:56.386
17,22,21,9,-31,-40,36,24,2020-11-12 21:46:56.392
-6,-10,10,3,10,17,-37,51,2020-11-12 21:46:56.398
-6,-10,10,3,10,17,-37,51,2020-11-12 21:46:56.404
12,12,4,-7,11,1,-52,-14,2020-11-12 21:46:56.410
12,12,4,-7,11,1,-52,-14,2020-11-12 21:46:56.415
12,12,4,-7,11,1,-52,-14,2020-11-12 21:46:56.421
12,12,4,-7,11,1,-52,-14,2020-11-12 21:46:56.427
-26,-10,-34,-61,8,-69,-82,-44,2020-11-12 21:46:56.433
-26,-10,-34,-61,8,-69,-82,-44,2020-11-12 21:46:56.439
1,-34,-23,22,-11,16,27,9,2020-11-12 21:46:56.445
1,-34,-23,22,-11,16,27,9,2020-11-12 21:46:56.451
-18,0,-21,-20,-14,8,-36,-37,2020-11-12 21:46:56.457
-18,0,-21,-20,-14,8,-36,-37,2020-11-12 21:46:56.463
4,14,-7,52,13,-10,-14,10,2020-11-12 21:46:56.468
4,14,-7,52,13,-10,-14,10,2020-11-12 21:46:56.475
-6,-21,1,2,-7,-9,-40,-20,2020-11-12 21:46:56.481
-13,0,-2,-16,-8,-8,14,-5,2020-11-12 21:46:56.486
-13,0,-2,-16,-8,-8,14,-5,2020-11-12 21:46:56.493
-13,0,-2,-16,-8,-8,14,-5,2020-11-12 21:46:56.498
2,-1,3,-5,-26,-8,88,50,2020-11-12 21:46:56.504
2,-1,3,-5,-26,-8,88,50,2020-11-12 21:46:56.511
23,14,-7,4,-22,-9,39,61,2020-11-12 21:46:56.516
23,14,-7,4,-22,-9,39,61,2020-11-12 21:46:56.522
-11,-4,5,-14,-1,15,31,3,2020-11-12 21:46:56.528
-11,-4,5,-14,-1,15,31,3,2020-11-12 21:46:56.534
8,6,4,29,-6,10,-73,-37,2020-11-12 21:46:56.539
8,6,4,29,-6,10,-73,-37,2020-11-12 21:46:56.546
8,6,4,29,-6,10,-73,-37,2020-11-12 21:46:56.552
3,4,8,12,-12,-6,-19,-6,2020-11-12 21:46:56.559
5,8,-3,20,23,17,24,4,2020-11-12 21:46:56.564
5,8,-3,20,23,17,24,4,2020-11-12 21:46:56.570
-3,5,-2,28,24,-4,-18,0,2020-11-12 21:46:56.584
0,-3,-10,-4,21,-62,-24,-16,2020-11-12 21:46:56.590
0,-3,-10,-4,21,-62,-24,-16,2020-11-12 21:46:56.597
7,1,-13,-13,20,-48,-74,52,2020-11-12 21:46:56.604
2,10,8,17,24,32,-63,-53,2020-11-12 21:46:56.610
2,10,8,17,24,32,-63,-53,2020-11-12 21:46:56.616
2,10,8,17,24,32,-63,-53,2020-11-12 21:46:56.622
2,10,8,17,24,32,-63,-53,2020-11-12 21:46:56.629
7,1,10,-20,-18,-20,-41,-2,2020-11-12 21:46:56.635
0,10,15,-14,-22,17,72,2,2020-11-12 21:46:56.641
6,10,5,-27,-22,22,19,10,2020-11-12 21:46:56.647
6,10,5,-27,-22,22,19,10,2020-11-12 21:46:56.653
13,-13,-6,25,27,3,54,33,2020-11-12 21:46:56.659
13,-13,-6,25,27,3,54,33,2020-11-12 21:46:56.665
-47,-19,-22,-13,-16,2,-22,-43,2020-11-12 21:46:56.670
-47,-19,-22,-13,-16,2,-22,-43,2020-11-12 21:46:56.677
20,11,5,-17,-1,-5,3,8,2020-11-12 21:46:56.683
14,8,-8,13,15,-10,50,7,2020-11-12 21:46:56.688
14,8,-8,13,15,-10,50,7,2020-11-12 21:46:56.694
-9,-4,-2,12,-3,10,-1,-20,2020-11-12 21:46:56.700
2,-4,3,6,17,41,48,9,2020-11-12 21:46:56.706
2,-4,3,6,17,41,48,9,2020-11-12 21:46:56.713
1,1,-7,-4,-3,29,2,1,2020-11-12 21:46:56.719
1,1,-7,-4,-3,29,2,1,2020-11-12 21:46:56.725
1,1,-7,-4,-3,29,2,1,2020-11-12 21:46:56.731
2,-1,11,16,2,-4,13,-12,2020-11-12 21:46:56.736
-7,5,-6,-15,5,-46,-26,5,2020-11-12 21:46:56.743
-1,-8,2,-20,-33,3,-19,49,2020-11-12 21:46:56.748
-1,-8,2,-20,-33,3,-19,49,2020-11-12 21:46:56.754
-17,-13,-6,14,-2,-70,-92,-27,2020-11-12 21:46:56.761
8,-4,-10,-6,-12,-18,-17,10,2020-11-12 21:46:56.767
8,-4,-10,-6,-12,-18,-17,10,2020-11-12 21:46:56.772
-6,-7,-5,-19,-17,8,-45,-23,2020-11-12 21:46:56.787
-5,-34,39,23,17,-5,-19,1,2020-11-12 21:46:56.793
-5,-34,39,23,17,-5,-19,1,2020-11-12 21:46:56.799
13,25,-13,-50,-8,14,20,6,2020-11-12 21:46:56.805
13,25,-13,-50,-8,14,20,6,2020-11-12 21:46:56.811
-6,-24,3,17,-10,9,52,1,2020-11-12 21:46:56.817
-6,-24,3,17,-10,9,52,1,2020-11-12 21:46:56.823
7,9,-6,20,-26,-34,36,3,2020-11-12 21:46:56.829
7,9,-6,20,-26,-34,36,3,2020-11-12 21:46:56.835
-8,18,-12,-12,-3,-9,44,4,2020-11-12 21:46:56.840
1,-12,-7,7,15,-1,-13,-3,2020-11-12 21:46:56.847
1,-12,-7,7,15,-1,-13,-3,2020-11-12 21:46:56.853
1,-12,-7,7,15,-1,-13,-3,2020-11-12 21:46:56.859
-9,-18,23,-33,-5,-10,-60,-21,2020-11-12 21:46:56.866
-9,-18,23,-33,-5,-10,-60,-21,2020-11-12 21:46:56.872
5,-29,-9,-18,-5,28,38,24,2020-11-12 21:46:56.878
5,-29,-9,-18,-5,28,38,24,2020-11-12 21:46:56.884
-10,12,-24,16,22,24,13,-3,2020-11-12 21:46:56.889
-10,12,-24,16,22,24,13,-3,2020-11-12 21:46:56.896
13,30,6,18,8,8,-9,5,2020-11-12 21:46:56.902
-11,8,-12,-8,4,45,-10,-87,2020-11-12 21:46:56.907
-11,8,-12,-8,4,45,-10,-87,2020-11-12 21:46:56.915
-11,8,-12,-8,4,45,-10,-87,2020-11-12 21:46:56.920
4,4,8,25,21,44,11,41,2020-11-12 21:46:56.927
4,4,8,25,21,44,11,41,2020-11-12 21:46:56.933
-11,-1,-2,14,1,47,4,-45,2020-11-12 21:46:56.938
-11,-1,-2,14,1,47,4,-45,2020-11-12 21:46:56.944
-25,-28,-20,-8,-3,-19,-70,-40,2020-11-12 21:46:56.950
-25,-28,-20,-8,-3,-19,-70,-40,2020-11-12 21:46:56.956
1,3,-11,3,6,-5,39,4,2020-11-12 21:46:56.962
-5,6,-4,-7,-9,25,73,-6,2020-11-12 21:46:56.968
-5,6,-4,-7,-9,25,73,-6,2020-11-12 21:46:56.974
-5,6,-4,-7,-9,25,73,-6,2020-11-12 21:46:56.988
18,3,-4,0,-2,-10,-32,-3,2020-11-12 21:46:56.995
9,4,8,0,3,-8,24,43,2020-11-12 21:46:57.000
9,4,8,0,3,-8,24,43,2020-11-12 21:46:57.006
15,21,11,5,11,-4,46,26,2020-11-12 21:46:57.013
-4,1,10,15,19,-15,-3,-12,2020-11-12 21:46:57.019
-9,-11,-25,-27,-10,37,26,7,2020-11-12 21:46:57.025
-12,-5,-33,-31,-13,-25,-72,-5,2020-11-12 21:46:57.031
-12,-5,-33,-31,-13,-25,-72,-5,2020-11-12 21:46:57.036
-17,-48,30,-12,-26,-11,-17,-23,2020-11-12 21:46:57.043
22,19,12,49,15,-44,71,42,2020-11-12 21:46:57.048
22,19,12,49,15,-44,71,42,2020-11-12 21:46:57.054
4,33,-11,-23,1,17,-3,1,2020-11-12 21:46:57.060
20,-10,-26,-84,-13,28,44,33,2020-11-12 21:46:57.066
20,-10,-26,-84,-13,28,44,33,2020-11-12 21:46:57.072
20,-10,-26,-84,-13,28,44,33,2020-11-12 21:46:57.078
20,-10,-26,-84,-13,28,44,33,2020-11-12 21:46:57.085
7,15,12,44,-8,17,9,5,2020-11-12 21:46:57.090
7,15,12,44,-8,17,9,5,2020-11-12 21:46:57.097
-1,-8,8,2,20,-56,-128,7,2020-11-12 21:46:57.103
-1,-8,8,2,20,-56,-128,7,2020-11-12 21:46:57.110
-15,-5,-20,-35,-67,-53,61,-64,2020-11-12 21:46:57.115
24,16,12,11,16,1,-2,52,2020-11-12 21:46:57.121
40,17,18,5,34,39,91,55,2020-11-12 21:46:57.129
40,17,18,5,34,39,91,55,2020-11-12 21:46:57.135
-19,-4,-11,6,-54,-58,-36,-46,2020-11-12 21:46:57.140
-8,-10,7,-3,0,35,-22,9,2020-11-12 21:46:57.147
-8,-10,7,-3,0,35,-22,9,2020-11-12 21:46:57.153
-8,-10,7,-3,0,35,-22,9,2020-11-12 21:46:57.159
-10,2,9,-15,17,-16,-68,-36,2020-11-12 21:46:57.165
-10,2,9,-15,17,-16,-68,-36,2020-11-12 21:46:57.172
6,15,12,15,17,8,35,27,2020-11-12 21:46:57.178
6,15,12,15,17,8,35,27,2020-11-12 21:46:57.191
-7,-2,-7,12,-29,-19,-11,-14,2020-11-12 21:46:57.197
-9,-18,82,38,12,1,-50,-19,2020-11-12 21:46:57.203
1,21,-3,41,-11,-19,6,-12,2020-11-12 21:46:57.209
1,21,-3,41,-11,-19,6,-12,2020-11-12 21:46:57.216
-5,-28,-55,-47,2,34,9,-3,2020-11-12 21:46:57.222
-11,-9,54,56,7,-23,-18,-11,2020-11-12 21:46:57.229
-11,-9,54,56,7,-23,-18,-11,2020-11-12 21:46:57.234
-2,5,-10,3,17,-20,-19,-5,2020-11-12 21:46:57.240
-27,-21,-44,-51,-36,-17,15,-59,2020-11-12 21:46:57.247
-27,-21,-44,-51,-36,-17,15,-59,2020-11-12 21:46:57.253
12,3,4,2,-14,40,-21,15,2020-11-12 21:46:57.259
12,3,4,2,-14,40,-21,15,2020-11-12 21:46:57.265
0,2,7,-12,-7,13,52,47,2020-11-12 21:46:57.271
0,2,7,-12,-7,13,52,47,2020-11-12 21:46:57.277
0,2,7,-12,-7,13,52,47,2020-11-12 21:46:57.283
0,2,7,-12,-7,13,52,47,2020-11-12 21:46:57.290
-4,-1,-11,0,0,-39,-63,-1,2020-11-12 21:46:57.317
16,7,-1,41,1,8,-66,-27,2020-11-12 21:46:57.323
-40,-25,-31,-22,-2,-2,21,-52,2020-11-12 21:46:57.329
-40,-25,-31,-22,-2,-2,21,-52,2020-11-12 21:46:57.335
-40,-25,-31,-22,-2,-2,21,-52,2020-11-12 21:46:57.341
1,11,-1,-30,20,-46,-66,-57,2020-11-12 21:46:57.348
1,11,-1,-30,20,-46,-66,-57,2020-11-12 21:46:57.354
-6,-11,-15,-24,-19,-31,30,-3,2020-11-12 21:46:57.359
2,3,-10,-33,-1,-71,-14,31,2020-11-12 21:46:57.366
14,3,-8,-68,5,14,4,41,2020-11-12 21:46:57.371
14,3,-8,-68,5,14,4,41,2020-11-12 21:46:57.378
3,3,14,25,-7,125,127,25,2020-11-12 21:46:57.384
17,35,-3,24,-13,-22,10,13,2020-11-12 21:46:57.399
-4,11,-16,46,-8,-103,-29,-23,2020-11-12 21:46:57.404
3,3,2,15,-3,27,49,21,2020-11-12 21:46:57.410
3,3,2,15,-3,27,49,21,2020-11-12 21:46:57.415
3,3,2,15,-3,27,49,21,2020-11-12 21:46:57.421
-3,-4,-33,-45,-6,-57,-65,-15,2020-11-12 21:46:57.427
-3,-4,-33,-45,-6,-57,-65,-15,2020-11-12 21:46:57.433
-6,-6,-28,-8,-16,-30,43,8,2020-11-12 21:46:57.438
-6,-6,-28,-8,-16,-30,43,8,2020-11-12 21:46:57.445
-10,-14,47,9,5,31,-17,-4,2020-11-12 21:46:57.451
-10,-14,47,9,5,31,-17,-4,2020-11-12 21:46:57.456
-3,11,20,-18,-8,27,28,-1,2020-11-12 21:46:57.463
-9,9,30,15,-6,-9,-29,-17,2020-11-12 21:46:57.468
-9,9,30,15,-6,-9,-29,-17,2020-11-12 21:46:57.474
-9,9,30,15,-6,-9,-29,-17,2020-11-12 21:46:57.481
8,-6,-22,17,7,9,46,19,2020-11-12 21:46:57.486
8,-6,-22,17,7,9,46,19,2020-11-12 21:46:57.493
11,0,12,1,6,14,-40,-31,2020-11-12 21:46:57.498
11,0,12,1,6,14,-40,-31,2020-11-12 21:46:57.504
5,-8,-44,1,6,23,31,15,2020-11-12 21:46:57.510
5,-8,-44,1,6,23,31,15,2020-11-12 21:46:57.516
-12,-11,-3,1,20,21,-71,-76,2020-11-12 21:46:57.523
6,0,14,26,23,58,55,30,2020-11-12 21:46:57.529
6,0,14,26,23,58,55,30,2020-11-12 21:46:57.535
6,0,14,26,23,58,55,30,2020-11-12 21:46:57.540
2,0,-1,2,0,-38,-105,2,2020-11-12 21:46:57.547
2,0,-1,2,0,-38,-105,2,2020-11-12 21:46:57.553
-8,-10,2,-6,-35,-47,41,32,2020-11-12 21:46:57.558
-8,-10,2,-6,-35,-47,41,32,2020-11-12 21:46:57.565
-5,-12,8,17,37,24,-70,-69,2020-11-12 21:46:57.570
-5,-12,8,17,37,24,-70,-69,2020-11-12 21:46:57.576
-10,-10,-10,-11,-10,-85,-6,9,2020-11-12 21:46:57.582
-10,-10,-10,-11,-10,-85,-6,9,2020-11-12 21:46:57.588
31,13,7,-9,-12,-7,23,94,2020-11-12 21:46:57.603
9,11,12,31,12,19,18,7,2020-11-12 21:46:57.608
9,11,12,31,12,19,18,7,2020-11-12 21:46:57.615
5,27,7,3,-21,19,18,24,2020-11-12 21:46:57.621
5,27,7,3,-21,19,18,24,2020-11-12 21:46:57.628
-6,-22,13,41,12,13,109,12,2020-11-12 21:46:57.634
-6,-22,13,41,12,13,109,12,2020-11-12 21:46:57.639
25,25,3,-39,9,48,96,54,2020-11-12 21:46:57.646
-10,-20,-8,-14,-19,1,13,-13,2020-11-12 21:46:57.651
-10,-20,-8,-14,-19,1,13,-13,2020-11-12 21:46:57.656
-10,-20,-8,-14,-19,1,13,-13,2020-11-12 21:46:57.663
-2,14,-8,19,-2,-5,5,1,2020-11-12 21:46:57.669
-2,14,-8,19,-2,-5,5,1,2020-11-12 21:46:57.675
0,-2,-1,-37,0,8,-10,-4,2020-11-12 21:46:57.681
22,3,1,-9,-1,-36,-82,-47,2020-11-12 21:46:57.687
22,3,1,-9,-1,-36,-82,-47,2020-11-12 21:46:57.693
22,3,1,-9,-1,-36,-82,-47,2020-11-12 21:46:57.698
-10,-11,-10,-20,-51,-51,57,-3,2020-11-12 21:46:57.704
-22,-3,7,-6,-11,-34,-33,-44,2020-11-12 21:46:57.710
-22,-3,7,-6,-11,-34,-33,-44,2020-11-12 21:46:57.716
-22,-3,7,-6,-11,-34,-33,-44,2020-11-12 21:46:57.722
33,17,0,-27,-39,-52,-6,80,2020-11-12 21:46:57.729
33,17,0,-27,-39,-52,-6,80,2020-11-12 21:46:57.735
-21,-16,-5,13,33,125,76,-29,2020-11-12 21:46:57.740
-21,-16,-5,13,33,125,76,-29,2020-11-12 21:46:57.746
-6,1,0,-3,34,123,63,-2,2020-11-12 21:46:57.752
-6,1,0,-3,34,123,63,-2,2020-11-12 21:46:57.758
24,21,8,-5,16,-3,-21,26,2020-11-12 21:46:57.764
-19,-16,-10,12,1,21,38,-38,2020-11-12 21:46:57.769
-19,-16,-10,12,1,21,38,-38,2020-11-12 21:46:57.774
-19,-16,-10,12,1,21,38,-38,2020-11-12 21:46:57.781
-19,-16,-10,12,1,21,38,-38,2020-11-12 21:46:57.787
-12,-43,-40,3,-1,-38,-43,-13,2020-11-12 21:46:57.793
4,6,-6,5,10,-17,-37,5,2020-11-12 21:46:57.807
4,6,-6,5,10,-17,-37,5,2020-11-12 21:46:57.813
11,10,7,-5,-18,10,53,26,2020-11-12 21:46:57.819
-14,4,10,21,0,6,-11,-34,2020-11-12 21:46:57.824
-16,-9,-3,-34,-3,-14,-20,-17,2020-11-12 21:46:57.832
-16,-9,-3,-34,-3,-14,-20,-17,2020-11-12 21:46:57.837
-16,-9,-3,-34,-3,-14,-20,-17,2020-11-12 21:46:57.843
11,6,5,-7,11,6,55,61,2020-11-12 21:46:57.849
11,6,5,-7,11,6,55,61,2020-11-12 21:46:57.855
3,3,-2,-2,-20,-35,-50,-53,2020-11-12 21:46:57.862
-15,-5,7,-11,-4,-34,9,-43,2020-11-12 21:46:57.868
-15,-5,7,-11,-4,-34,9,-43,2020-11-12 21:46:57.873
-15,-5,7,-11,-4,-34,9,-43,2020-11-12 21:46:57.880
-10,7,-2,-6,0,4,37,-29,2020-11-12 21:46:57.885
-10,-4,4,2,17,39,51,-38,2020-11-12 21:46:57.891
-10,-4,4,2,17,39,51,-38,2020-11-12 21:46:57.897
-10,-4,4,2,17,39,51,-38,2020-11-12 21:46:57.903
6,7,3,-4,7,-2,84,22,2020-11-12 21:46:57.909
6,7,3,-4,7,-2,84,22,2020-11-12 21:46:57.916
3,-2,-4,-11,8,27,69,49,2020-11-12 21:46:57.922
-14,-9,-12,-53,-16,-42,-17,-5,2020-11-12 21:46:57.929
-14,-9,-12,-53,-16,-42,-17,-5,2020-11-12 21:46:57.935
-14,-9,-12,-53,-16,-42,-17,-5,2020-11-12 21:46:57.940
-3,-3,5,-17,7,-12,-95,-3,2020-11-12 21:46:57.947
1,18,9,-20,-30,3,-48,-14,2020-11-12 21:46:57.953
1,18,9,-20,-30,3,-48,-14,2020-11-12 21:46:57.959
9,-48,9,-23,9,46,-56,25,2020-11-12 21:46:57.966
-7,-9,-15,-11,-17,-22,-92,-19,2020-11-12 21:46:57.972
-7,-9,-15,-11,-17,-22,-92,-19,2020-11-12 21:46:57.978
3,12,-2,60,21,-27,36,13,2020-11-12 21:46:57.984
-4,2,-13,-2,9,-16,-20,-9,2020-11-12 21:46:57.989
-4,2,-13,-2,9,-16,-20,-9,2020-11-12 21:46:57.996
-25,-2,3,20,3,-7,23,-32,2020-11-12 21:46:58.011
2,5,3,14,2,27,-31,-21,2020-11-12 21:46:58.017
2,5,3,14,2,27,-31,-21,2020-11-12 21:46:58.023
-12,-5,-9,4,4,27,18,27,2020-11-12 21:46:58.028
-12,-5,-9,4,4,27,18,27,2020-11-12 21:46:58.035
-8,-4,-1,-12,-1,-2,-67,-25,2020-11-12 21:46:58.040
-8,-4,-1,-12,-1,-2,-67,-25,2020-11-12 21:46:58.047
3,-4,-14,-1,16,-8,3,3,2020-11-12 21:46:58.053
3,-4,-14,-1,16,-8,3,3,2020-11-12 21:46:58.058
-10,-1,-10,-28,-22,-10,-77,-41,2020-11-12 21:46:58.065
-13,-17,-3,-2,2,-64,-14,-41,2020-11-12 21:46:58.071
-13,-17,-3,-2,2,-64,-14,-41,2020-11-12 21:46:58.077
-13,-17,-3,-2,2,-64,-14,-41,2020-11-12 21:46:58.084
6,3,11,6,8,0,44,13,2020-11-12 21:46:58.089
6,3,11,6,8,0,44,13,2020-11-12 21:46:58.096
0,-2,-9,-14,-27,-45,42,1,2020-11-12 21:46:58.102
5,-1,11,66,10,21,53,27,2020-11-12 21:46:58.107
5,-1,11,66,10,21,53,27,2020-11-12 21:46:58.114
5,-1,11,66,10,21,53,27,2020-11-12 21:46:58.119
8,7,7,68,1,27,127,51,2020-11-12 21:46:58.125
2,-18,-15,-30,-14,43,-3,6,2020-11-12 21:46:58.132
2,-18,-15,-30,-14,43,-3,6,2020-11-12 21:46:58.137
2,-18,-15,-30,-14,43,-3,6,2020-11-12 21:46:58.143
19,7,39,6,19,2,-15,28,2020-11-12 21:46:58.149
10,45,-2,13,3,30,-40,-11,2020-11-12 21:46:58.155
10,45,-2,13,3,30,-40,-11,2020-11-12 21:46:58.162
-40,-17,-62,-28,31,23,-35,-14,2020-11-12 21:46:58.167
10,2,16,10,3,-62,13,28,2020-11-12 21:46:58.172
10,2,16,10,3,-62,13,28,2020-11-12 21:46:58.179
51,18,12,-20,-27,-10,55,8,2020-11-12 21:46:58.185
-34,-1,6,26,23,-3,-16,-10,2020-11-12 21:46:58.191
-34,-1,6,26,23,-3,-16,-10,2020-11-12 21:46:58.197
11,11,17,-15,-33,-26,15,-26,2020-11-12 21:46:58.214
4,7,14,-13,-62,3,-117,-109,2020-11-12 21:46:58.221
12,12,16,-7,-16,-30,-100,-80,2020-11-12 21:46:58.228
12,12,16,-7,-16,-30,-100,-80,2020-11-12 21:46:58.234
12,12,16,-7,-16,-30,-100,-80,2020-11-12 21:46:58.240
-26,-16,-9,14,28,-65,-22,-52,2020-11-12 21:46:58.247
3,-2,-2,-6,-8,20,-16,25,2020-11-12 21:46:58.253
3,-2,-2,-6,-8,20,-16,25,2020-11-12 21:46:58.259
3,-2,-2,-6,-8,20,-16,25,2020-11-12 21:46:58.265
3,-2,-2,-6,-8,20,-16,25,2020-11-12 21:46:58.271
15,13,12,-17,-13,24,-10,53,2020-11-12 21:46:58.277
15,13,12,-17,-13,24,-10,53,2020-11-12 21:46:58.284
11,-2,1,-9,-12,-40,-64,15,2020-11-12 21:46:58.289
-5,-6,0,14,8,-3,26,26,2020-11-12 21:46:58.297
-5,-8,4,-2,-7,-6,14,6,2020-11-12 21:46:58.304
-4,-24,-10,-17,8,-46,-30,-14,2020-11-12 21:46:58.310
-4,-24,-10,-17,8,-46,-30,-14,2020-11-12 21:46:58.317
-4,-24,-10,-17,8,-46,-30,-14,2020-11-12 21:46:58.322
38,12,6,-5,2,16,36,53,2020-11-12 21:46:58.328
-31,-8,-1,-4,-7,13,-4,-26,2020-11-12 21:46:58.334
-31,-8,-1,-4,-7,13,-4,-26,2020-11-12 21:46:58.339
-31,-8,-1,-4,-7,13,-4,-26,2020-11-12 21:46:58.346
-4,6,3,-3,-16,-10,17,1,2020-11-12 21:46:58.352
-4,6,3,-3,-16,-10,17,1,2020-11-12 21:46:58.357
-4,6,3,-3,-16,-10,17,1,2020-11-12 21:46:58.364
-24,-29,-25,-16,-5,20,54,-8,2020-11-12 21:46:58.370
36,7,10,0,-10,5,-6,11,2020-11-12 21:46:58.376
36,7,10,0,-10,5,-6,11,2020-11-12 21:46:58.383
-2,24,-3,7,11,10,-12,8,2020-11-12 21:46:58.389
-21,-48,0,-11,-19,-3,-2,-16,2020-11-12 21:46:58.396
-21,-48,0,-11,-19,-3,-2,-16,2020-11-12 21:46:58.402
5,52,-9,-9,-11,-7,-3,-2,2020-11-12 21:46:58.416
-19,-29,11,3,5,5,-8,0,2020-11-12 21:46:58.422
-19,-29,11,3,5,5,-8,0,2020-11-12 21:46:58.428
5,-3,-26,18,11,-3,-24,-24,2020-11-12 21:46:58.434
5,-3,-26,18,11,-3,-24,-24,2020-11-12 21:46:58.440
-1,11,20,-16,0,28,30,18,2020-11-12 21:46:58.447
6,4,-4,-8,7,-6,0,2,2020-11-12 21:46:58.452
6,4,-4,-8,7,-6,0,2,2020-11-12 21:46:58.458
6,4,-4,-8,7,-6,0,2,2020-11-12 21:46:58.465
-4,13,11,7,16,7,13,-2,2020-11-12 21:46:58.471
-4,13,11,7,16,7,13,-2,2020-11-12 21:46:58.477
4,-24,7,-7,9,6,22,14,2020-11-12 21:46:58.483
4,-24,7,-7,9,6,22,14,2020-11-12 21:46:58.488
4,-24,7,-7,9,6,22,14,2020-11-12 21:46:58.495
-3,-10,-1,-17,-16,5,41,14,2020-11-12 21:46:58.501
-7,-24,-23,-12,-9,24,0,-5,2020-11-12 21:46:58.507
-14,-10,-22,-19,-18,-26,-22,-20,2020-11-12 21:46:58.513
-14,-10,-22,-19,-18,-26,-22,-20,2020-11-12 21:46:58.519
-14,-10,-22,-19,-18,-26,-22,-20,2020-11-12 21:46:58.525
3,22,-36,-35,-10,-3,-50,-6,2020-11-12 21:46:58.532
3,22,-36,-35,-10,-3,-50,-6,2020-11-12 21:46:58.538
-16,-44,-4,49,16,14,27,2,2020-11-12 21:46:58.543
-16,-44,-4,49,16,14,27,2,2020-11-12 21:46:58.568
21,5,-8,-1,3,-12,46,67,2020-11-12 21:46:58.574
21,5,-8,-1,3,-12,46,67,2020-11-12 21:46:58.580
21,5,-8,-1,3,-12,46,67,2020-11-12 21:46:58.586
-2,-7,8,-14,-29,19,48,8,2020-11-12 21:46:58.592
-2,-7,8,-14,-29,19,48,8,2020-11-12 21:46:58.599
3,14,0,-14,7,17,-5,-15,2020-11-12 21:46:58.605
3,14,0,-14,7,17,-5,-15,2020-11-12 21:46:58.621
2,1,0,2,18,-2,-5,12,2020-11-12 21:46:58.626
4,-8,22,50,11,46,59,-9,2020-11-12 21:46:58.633
4,-8,22,50,11,46,59,-9,2020-11-12 21:46:58.638
4,-8,22,50,11,46,59,-9,2020-11-12 21:46:58.645
-7,1,-19,-1,-10,-17,-20,11,2020-11-12 21:46:58.651
-7,1,-19,-1,-10,-17,-20,11,2020-11-12 21:46:58.657
-8,-23,-50,-8,3,26,21,7,2020-11-12 21:46:58.664
-3,-8,-9,1,23,15,71,24,2020-11-12 21:46:58.669
-3,-8,-9,1,23,15,71,24,2020-11-12 21:46:58.675
-3,-8,-9,1,23,15,71,24,2020-11-12 21:46:58.682
6,8,1,-37,-21,26,-5,8,2020-11-12 21:46:58.687
-5,-13,-24,-12,-2,-53,-110,-17,2020-11-12 21:46:58.693
-5,-13,-24,-12,-2,-53,-110,-17,2020-11-12 21:46:58.699
-5,-13,-24,-12,-2,-53,-110,-17,2020-11-12 21:46:58.704
-5,-13,-24,-12,-2,-53,-110,-17,2020-11-12 21:46:58.710
12,8,12,-6,-12,33,6,13,2020-11-12 21:46:58.716
-16,-7,27,55,13,-20,-86,-32,2020-11-12 21:46:58.723
-16,-7,27,55,13,-20,-86,-32,2020-11-12 21:46:58.729
1,-27,5,1,5,17,16,-20,2020-11-12 21:46:58.735
1,-27,5,1,5,17,16,-20,2020-11-12 21:46:58.740
3,4,-13,16,10,-4,2,-11,2020-11-12 21:46:58.747
4,-2,-12,-3,1,-25,-27,-27,2020-11-12 21:46:58.753
4,-2,-12,-3,1,-25,-27,-27,2020-11-12 21:46:58.758
4,-2,-12,-3,1,-25,-27,-27,2020-11-12 21:46:58.765
-13,-29,-19,5,-10,2,101,18,2020-11-12 21:46:58.771
-13,-29,-19,5,-10,2,101,18,2020-11-12 21:46:58.777
-2,4,-3,9,-1,21,67,5,2020-11-12 21:46:58.783
3,6,-23,-7,2,1,-46,-10,2020-11-12 21:46:58.789
3,6,-23,-7,2,1,-46,-10,2020-11-12 21:46:58.795
3,6,-23,-7,2,1,-46,-10,2020-11-12 21:46:58.801
9,18,1,2,9,-20,-45,-15,2020-11-12 21:46:58.806
7,16,36,26,2,3,-9,6,2020-11-12 21:46:58.821
9,-4,-6,-6,24,8,-35,7,2020-11-12 21:46:58.827
23,20,3,-3,-2,-16,-119,71,2020-11-12 21:46:58.834
23,20,3,-3,-2,-16,-119,71,2020-11-12 21:46:58.839
15,11,20,10,5,6,23,4,2020-11-12 21:46:58.847
-9,-26,-10,0,2,-5,-18,-20,2020-11-12 21:46:58.852
-9,-26,-10,0,2,-5,-18,-20,2020-11-12 21:46:58.858
-17,-7,-1,2,-20,-16,8,18,2020-11-12 21:46:58.864
-17,-7,-1,2,-20,-16,8,18,2020-11-12 21:46:58.870
-9,9,20,-8,3,20,61,11,2020-11-12 21:46:58.876
-9,9,20,-8,3,20,61,11,2020-11-12 21:46:58.882
13,8,0,5,2,54,99,52,2020-11-12 21:46:58.888
-15,16,-4,-7,-6,-42,-39,-59,2020-11-12 21:46:58.894
-15,16,-4,-7,-6,-42,-39,-59,2020-11-12 21:46:58.900
-4,-19,7,4,5,6,16,27,2020-11-12 21:46:58.906
6,-28,-4,-5,2,19,9,-6,2020-11-12 21:46:58.913
6,-28,-4,-5,2,19,9,-6,2020-11-12 21:46:58.919
3,-8,2,-34,-33,-8,-29,6,2020-11-12 21:46:58.925
-1,9,-1,-22,-40,8,-25,-43,2020-11-12 21:46:58.931
-1,9,-1,-22,-40,8,-25,-43,2020-11-12 21:46:58.937
-1,9,-1,-22,-40,8,-25,-43,2020-11-12 21:46:58.942
-1,-12,2,-5,-12,-28,-53,-13,2020-11-12 21:46:58.949
1,-2,-11,-5,40,-10,82,10,2020-11-12 21:46:58.955
1,14,1,9,7,-12,9,-7,2020-11-12 21:46:58.961
1,14,1,9,7,-12,9,-7,2020-11-12 21:46:58.967
-1,4,-5,3,2,-21,-53,2,2020-11-12 21:46:58.973
-1,4,-5,3,2,-21,-53,2,2020-11-12 21:46:58.979
6,12,18,-12,-3,22,-6,0,2020-11-12 21:46:58.985
-7,0,-2,5,8,23,23,-26,2020-11-12 21:46:58.991
-7,0,-2,5,8,23,23,-26,2020-11-12 21:46:58.997
-7,0,-2,5,8,23,23,-26,2020-11-12 21:46:59.003
2,12,-2,-17,-36,-70,31,10,2020-11-12 21:46:59.009
2,12,-2,-17,-36,-70,31,10,2020-11-12 21:46:59.025
-26,-11,-4,-10,-6,34,62,-30,2020-11-12 21:46:59.031
-26,-11,-4,-10,-6,34,62,-30,2020-11-12 21:46:59.037
-26,-11,-4,-10,-6,34,62,-30,2020-11-12 21:46:59.042
1,4,0,-3,-2,-11,-45,-2,2020-11-12 21:46:59.049
1,-10,0,-2,-6,8,-67,-24,2020-11-12 21:46:59.054
1,-10,0,-2,-6,8,-67,-24,2020-11-12 21:46:59.059
1,-10,0,-2,-6,8,-67,-24,2020-11-12 21:46:59.067
-1,3,-18,-2,5,39,44,29,2020-11-12 21:46:59.072
-1,3,-18,-2,5,39,44,29,2020-11-12 21:46:59.078
-11,-31,-22,22,12,-26,-44,-20,2020-11-12 21:46:59.084
3,-27,-6,-22,-11,0,-101,-17,2020-11-12 21:46:59.089
3,-27,-6,-22,-11,0,-101,-17,2020-11-12 21:46:59.095
3,-27,-6,-22,-11,0,-101,-17,2020-11-12 21:46:59.102
-11,-4,3,22,-4,3,27,16,2020-11-12 21:46:59.107
20,46,24,33,23,9,25,27,2020-11-12 21:46:59.114
20,46,24,33,23,9,25,27,2020-11-12 21:46:59.119
20,46,24,33,23,9,25,27,2020-11-12 21:46:59.125
-23,-3,-9,-29,-8,7,-39,-39,2020-11-12 21:46:59.131
28,15,18,4,2,1,-4,64,2020-11-12 21:46:59.137
-7,1,-27,0,-9,-7,-19,-15,2020-11-12 21:46:59.143
-7,1,-27,0,-9,-7,-19,-15,2020-11-12 21:46:59.150
-3,4,11,31,-10,12,21,-13,2020-11-12 21:46:59.155
-3,4,11,31,-10,12,21,-13,2020-11-12 21:46:59.162
7,1,-13,-28,-8,17,20,20,2020-11-12 21:46:59.168
0,-1,2,12,25,36,75,11,2020-11-12 21:46:59.173
0,-1,2,12,25,36,75,11,2020-11-12 21:46:59.179
0,-1,2,12,25,36,75,11,2020-11-12 21:46:59.186
1,-9,6,-8,-5,-6,-10,-9,2020-11-12 21:46:59.192
-19,-21,-1,15,12,-6,-28,-17,2020-11-12 21:46:59.197
10,-3,7,2,-2,34,40,16,2020-11-12 21:46:59.203
-10,-3,17,5,-17,-41,-48,-19,2020-11-12 21:46:59.209
-10,-3,17,5,-17,-41,-48,-19,2020-11-12 21:46:59.225
-7,6,-4,-2,-2,-12,-38,-13,2020-11-12 21:46:59.232
-7,6,-4,-2,-2,-12,-38,-13,2020-11-12 21:46:59.237
-7,6,-4,-2,-2,-12,-38,-13,2020-11-12 21:46:59.243
15,1,2,21,13,-39,55,21,2020-11-12 21:46:59.250
1,-9,-8,1,-13,40,36,7,2020-11-12 21:46:59.256
1,-9,-8,1,-13,40,36,7,2020-11-12 21:46:59.263
1,-9,-8,1,-13,40,36,7,2020-11-12 21:46:59.268
-4,0,-21,-23,-31,-76,-62,-24,2020-11-12 21:46:59.274
-4,0,-21,-23,-31,-76,-62,-24,2020-11-12 21:46:59.282
-12,9,10,-9,-7,22,-8,-16,2020-11-12 21:46:59.287
3,4,-9,-25,3,8,1,6,2020-11-12 21:46:59.293
3,4,-9,-25,3,8,1,6,2020-11-12 21:46:59.300
-7,5,-8,2,-5,-15,4,-14,2020-11-12 21:46:59.308
-5,3,-12,-10,-3,2,2,-3,2020-11-12 21:46:59.315
-5,3,-12,-10,-3,2,2,-3,2020-11-12 21:46:59.321
-5,3,-12,-10,-3,2,2,-3,2020-11-12 21:46:59.327
-6,-10,-1,-20,-27,-73,33,-37,2020-11-12 21:46:59.334
-6,-10,-1,-20,-27,-73,33,-37,2020-11-12 21:46:59.339
-5,7,11,-4,1,3,41,-3,2020-11-12 21:46:59.346
0,-4,14,6,20,23,-11,18,2020-11-12 21:46:59.352
0,-4,14,6,20,23,-11,18,2020-11-12 21:46:59.357
0,-4,14,6,20,23,-11,18,2020-11-12 21:46:59.364
0,-4,14,6,20,23,-11,18,2020-11-12 21:46:59.369
3,-7,-11,-5,7,6,-34,-25,2020-11-12 21:46:59.375
1,-8,-9,18,16,13,45,7,2020-11-12 21:46:59.381
1,-8,-9,18,16,13,45,7,2020-11-12 21:46:59.387
31,28,17,46,28,22,21,41,2020-11-12 21:46:59.393
31,28,17,46,28,22,21,41,2020-11-12 21:46:59.399
-7,29,-6,-1,-22,0,125,21,2020-11-12 21:46:59.405
-3,-2,1,-13,-33,12,81,12,2020-11-12 21:46:59.410
-3,-2,1,-13,-33,12,81,12,2020-11-12 21:46:59.425
-6,4,87,-40,-16,26,19,5,2020-11-12 21:46:59.431
-5,-19,-42,-22,13,-6,-40,2,2020-11-12 21:46:59.437
-5,-19,-42,-22,13,-6,-40,2,2020-11-12 21:46:59.442
-5,-19,-42,-22,13,-6,-40,2,2020-11-12 21:46:59.449
-6,-11,-16,-7,-9,-9,-23,-1,2020-11-12 21:46:59.455
-6,-11,-16,-7,-9,-9,-23,-1,2020-11-12 21:46:59.461
10,-35,6,43,43,31,35,19,2020-11-12 21:46:59.467
-3,-1,-1,-12,2,31,-2,-13,2020-11-12 21:46:59.473
-3,-1,-1,-12,2,31,-2,-13,2020-11-12 21:46:59.479
-3,-1,-1,-12,2,31,-2,-13,2020-11-12 21:46:59.485
-1,30,50,10,-3,-6,-4,4,2020-11-12 21:46:59.491
-9,7,4,-13,-1,2,-32,-17,2020-11-12 21:46:59.497
-9,7,4,-13,-1,2,-32,-17,2020-11-12 21:46:59.503
-2,8,36,7,-5,6,-62,-27,2020-11-12 21:46:59.508
-1,-6,-7,0,3,-4,-11,19,2020-11-12 21:46:59.515
-1,-6,-7,0,3,-4,-11,19,2020-11-12 21:46:59.521
-7,-14,-31,-3,-11,-17,3,16,2020-11-12 21:46:59.527
50,20,14,0,3,-13,-31,94,2020-11-12 21:46:59.534
50,20,14,0,3,-13,-31,94,2020-11-12 21:46:59.540
50,20,14,0,3,-13,-31,94,2020-11-12 21:46:59.547
-21,-5,7,2,-4,15,30,51,2020-11-12 21:46:59.553
-21,-5,7,2,-4,15,30,51,2020-11-12 21:46:59.558
-21,-5,7,2,-4,15,30,51,2020-11-12 21:46:59.565
-18,-10,-9,-16,4,25,28,-60,2020-11-12 21:46:59.571
-18,-10,-9,-16,4,25,28,-60,2020-11-12 21:46:59.577
-18,-10,-9,-16,4,25,28,-60,2020-11-12 21:46:59.584
-13,-12,-17,-6,5,15,82,7,2020-11-12 21:46:59.589
0,-1,11,1,3,-8,19,-6,2020-11-12 21:46:59.596
0,-1,11,1,3,-8,19,-6,2020-11-12 21:46:59.602
29,16,-2,38,17,27,10,12,2020-11-12 21:46:59.608
2,5,-12,32,1,-43,-35,-31,2020-11-12 21:46:59.614
2,5,-12,32,1,-43,-35,-31,2020-11-12 21:46:59.629
-7,29,45,47,6,-41,-24,-26,2020-11-12 21:46:59.635
-7,29,45,47,6,-41,-24,-26,2020-11-12 21:46:59.641
13,34,31,11,6,-9,-15,13,2020-11-12 21:46:59.648
-15,-28,4,-57,-31,-13,-94,-48,2020-11-12 21:46:59.654
-15,-28,4,-57,-31,-13,-94,-48,2020-11-12 21:46:59.659
-15,-28,4,-57,-31,-13,-94,-48,2020-11-12 21:46:59.666
-13,-59,-18,-11,-11,-8,-36,-9,2020-11-12 21:46:59.672
-11,-13,3,16,3,17,18,-15,2020-11-12 21:46:59.678
-11,-13,3,16,3,17,18,-15,2020-11-12 21:46:59.684
-7,-8,-22,-21,-7,-11,4,-7,2020-11-12 21:46:59.690
-1,-30,-59,-9,0,-1,-13,-7,2020-11-12 21:46:59.697
-1,-30,-59,-9,0,-1,-13,-7,2020-11-12 21:46:59.703
18,-12,2,-19,10,19,-9,3,2020-11-12 21:46:59.708
1,8,-8,-15,-8,0,16,6,2020-11-12 21:46:59.715
1,8,-8,-15,-8,0,16,6,2020-11-12 21:46:59.720
4,12,4,23,-1,20,20,-17,2020-11-12 21:46:59.726
4,12,4,23,-1,20,20,-17,2020-11-12 21:46:59.733
4,12,4,23,-1,20,20,-17,2020-11-12 21:46:59.738
29,19,12,-12,-31,76,39,-29,2020-11-12 21:46:59.744
-6,6,1,6,5,22,-46,-1,2020-11-12 21:46:59.752
-17,-3,1,-8,-15,58,16,18,2020-11-12 21:46:59.757
13,13,7,16,23,-36,67,15,2020-11-12 21:46:59.764
13,13,7,16,23,-36,67,15,2020-11-12 21:46:59.769
1,3,12,22,20,36,-70,-26,2020-11-12 21:46:59.775
1,3,12,22,20,36,-70,-26,2020-11-12 21:46:59.782
1,-4,-12,-18,-10,-5,-34,-22,2020-11-12 21:46:59.788
14,9,10,4,3,-32,27,43,2020-11-12 21:46:59.793
14,9,10,4,3,-32,27,43,2020-11-12 21:46:59.800
14,9,10,4,3,-32,27,43,2020-11-12 21:46:59.806
-4,-19,4,-1,3,8,-14,1,2020-11-12 21:46:59.831
-25,-57,-28,-34,23,-12,-33,-38,2020-11-12 21:46:59.846
6,2,-34,-45,-23,-7,46,31,2020-11-12 21:46:59.852
7,34,-13,83,26,-42,29,8,2020-11-12 21:46:59.857
7,34,-13,83,26,-42,29,8,2020-11-12 21:46:59.863
7,34,-13,83,26,-42,29,8,2020-11-12 21:46:59.869
14,12,1,11,15,-11,68,32,2020-11-12 21:46:59.875
14,12,1,11,15,-11,68,32,2020-11-12 21:46:59.881
-4,8,10,-30,-19,-31,-92,-30,2020-11-12 21:46:59.887
-9,8,21,-8,-14,-18,-7,-18,2020-11-12 21:46:59.893
-9,8,21,-8,-14,-18,-7,-18,2020-11-12 21:46:59.898
-9,8,21,-8,-14,-18,-7,-18,2020-11-12 21:46:59.904
-9,8,21,-8,-14,-18,-7,-18,2020-11-12 21:46:59.910
3,2,-2,9,6,-10,-43,11,2020-11-12 21:46:59.917
3,2,-2,9,6,-10,-43,11,2020-11-12 21:46:59.923
-1,-3,-4,-9,3,70,116,-11,2020-11-12 21:46:59.929
-16,-11,-1,-22,-26,-1,27,-90,2020-11-12 21:46:59.935
-16,-11,-1,-22,-26,-1,27,-90,2020-11-12 21:46:59.941
3,-15,4,-5,-29,-11,-19,54,2020-11-12 21:46:59.948
-31,-8,-10,-21,58,49,73,-50,2020-11-12 21:46:59.954
-31,-8,-10,-21,58,49,73,-50,2020-11-12 21:46:59.960
20,4,-3,3,-15,-23,-116,-96,2020-11-12 21:46:59.967
15,10,-2,-15,-29,-10,-128,3,2020-11-12 21:46:59.973
15,10,-2,-15,-29,-10,-128,3,2020-11-12 21:46:59.979
15,10,-2,-15,-29,-10,-128,3,2020-11-12 21:46:59.985
16,13,3,4,-39,7,-9,17,2020-11-12 21:46:59.991
16,13,3,4,-39,7,-9,17,2020-11-12 21:46:59.997
-2,12,-43,-21,14,-54,-43,-14,2020-11-12 21:47:00.004
-2,12,-43,-21,14,-54,-43,-14,2020-11-12 21:47:00.013
6,-9,6,28,17,14,23,26,2020-11-12 21:47:00.020
14,-1,-11,-7,39,20,39,53,2020-11-12 21:47:00.026
27,14,9,7,-43,1,-14,8,2020-11-12 21:47:00.033
-20,-27,24,-20,-41,3,53,-15,2020-11-12 21:47:00.049
5,-5,33,-40,-35,-29,7,51,2020-11-12 21:47:00.055
5,-5,33,-40,-35,-29,7,51,2020-11-12 21:47:00.060
0,-46,-19,-45,-27,42,-37,0,2020-11-12 21:47:00.067
4,-12,-24,-19,26,-35,26,5,2020-11-12 21:47:00.073
4,-12,-24,-19,26,-35,26,5,2020-11-12 21:47:00.078
4,-12,-24,-19,26,-35,26,5,2020-11-12 21:47:00.085
4,19,-5,-26,-17,-29,-16,19,2020-11-12 21:47:00.090
-2,21,13,38,22,-81,-58,7,2020-11-12 21:47:00.097
-2,21,13,38,22,-81,-58,7,2020-11-12 21:47:00.103
30,25,8,23,19,-11,-57,20,2020-11-12 21:47:00.108
30,25,8,23,19,-11,-57,20,2020-11-12 21:47:00.115
12,11,-5,0,40,-1,42,63,2020-11-12 21:47:00.121
-26,-21,-17,-6,-18,-9,-7,-49,2020-11-12 21:47:00.126
-5,8,-8,-9,-15,-4,-27,-41,2020-11-12 21:47:00.133
-5,8,-8,-9,-15,-4,-27,-41,2020-11-12 21:47:00.138
-5,8,-8,-9,-15,-4,-27,-41,2020-11-12 21:47:00.144
-11,7,-5,16,27,25,85,-17,2020-11-12 21:47:00.152
-10,-3,-6,-13,-24,31,35,-23,2020-11-12 21:47:00.157
-10,-3,-6,-13,-24,31,35,-23,2020-11-12 21:47:00.164
-22,-7,3,7,3,-25,-58,-84,2020-11-12 21:47:00.170
-22,-7,3,7,3,-25,-58,-84,2020-11-12 21:47:00.175
24,10,-5,5,-4,81,-47,22,2020-11-12 21:47:00.182
24,10,-5,5,-4,81,-47,22,2020-11-12 21:47:00.187
-5,-6,-13,-29,-24,-34,46,3,2020-11-12 21:47:00.193
4,-20,-4,28,22,-4,-6,-10,2020-11-12 21:47:00.199
4,-20,-4,28,22,-4,-6,-10,2020-11-12 21:47:00.205
8,2,-3,16,6,9,-46,29,2020-11-12 21:47:00.210
-10,32,5,-37,-24,-28,-53,-5,2020-11-12 21:47:00.217
-10,32,5,-37,-24,-28,-53,-5,2020-11-12 21:47:00.223
6,-14,3,69,34,27,32,16,2020-11-12 21:47:00.229
6,-14,3,69,34,27,32,16,2020-11-12 21:47:00.236
-5,-26,-50,5,3,1,-56,-21,2020-11-12 21:47:00.251
10,6,0,-1,10,-14,21,-24,2020-11-12 21:47:00.257
10,6,0,-1,10,-14,21,-24,2020-11-12 21:47:00.263
13,2,-6,14,50,-83,-39,-12,2020-11-12 21:47:00.270
-27,-10,3,-13,-13,31,88,5,2020-11-12 21:47:00.275
-27,-10,3,-13,-13,31,88,5,2020-11-12 21:47:00.282
-27,-10,3,-13,-13,31,88,5,2020-11-12 21:47:00.288
6,10,9,-11,6,9,20,26,2020-11-12 21:47:00.294
16,18,34,32,14,-35,-3,-29,2020-11-12 21:47:00.301
16,18,34,32,14,-35,-3,-29,2020-11-12 21:47:00.306
21,6,-8,-12,-3,-10,-25,76,2020-11-12 21:47:00.314
-2,-5,5,5,-29,-4,3,4,2020-11-12 21:47:00.319
-2,-5,5,5,-29,-4,3,4,2020-11-12 21:47:00.325
-5,3,9,-2,-5,-13,-31,-33,2020-11-12 21:47:00.332
-2,-63,38,-1,12,-4,-18,11,2020-11-12 21:47:00.337
-2,-63,38,-1,12,-4,-18,11,2020-11-12 21:47:00.343
-8,15,23,14,3,-5,14,-14,2020-11-12 21:47:00.349
7,-22,-2,24,14,19,-21,3,2020-11-12 21:47:00.355
-8,-1,7,14,3,16,69,26,2020-11-12 21:47:00.360
-8,-1,7,14,3,16,69,26,2020-11-12 21:47:00.367
-3,5,-35,-12,-5,5,75,9,2020-11-12 21:47:00.374
-3,5,-35,-12,-5,5,75,9,2020-11-12 21:47:00.381
-3,37,-17,52,17,29,-34,-14,2020-11-12 21:47:00.386
-3,37,-17,52,17,29,-34,-14,2020-11-12 21:47:00.392
4,-9,-15,3,2,18,5,20,2020-11-12 21:47:00.398
4,-9,-15,3,2,18,5,20,2020-11-12 21:47:00.405
-16,-13,-7,10,11,-48,-39,-37,2020-11-12 21:47:00.410
-13,11,-10,-7,-23,-23,0,-25,2020-11-12 21:47:00.417
-13,11,-10,-7,-23,-23,0,-25,2020-11-12 21:47:00.423
-13,11,-10,-7,-23,-23,0,-25,2020-11-12 21:47:00.429
19,30,14,8,47,114,93,33,2020-11-12 21:47:00.435
19,30,14,8,47,114,93,33,2020-11-12 21:47:00.440
-30,-25,-9,-15,-39,-105,-128,-85,2020-11-12 21:47:00.455
4,12,13,-13,-17,-4,-27,-32,2020-11-12 21:47:00.460
4,12,13,-13,-17,-4,-27,-32,2020-11-12 21:47:00.467
-20,3,13,23,39,96,60,-35,2020-11-12 21:47:00.473
2,6,-1,6,-7,11,-20,-3,2020-11-12 21:47:00.478
2,6,-1,6,-7,11,-20,-3,2020-11-12 21:47:00.485
2,6,-1,6,-7,11,-20,-3,2020-11-12 21:47:00.490
2,-7,-27,-84,-23,-55,-26,4,2020-11-12 21:47:00.496
2,-7,-27,-84,-23,-55,-26,4,2020-11-12 21:47:00.503
-10,-27,0,-15,-5,-17,5,-18,2020-11-12 21:47:00.508
-26,-36,67,70,-20,16,26,18,2020-11-12 21:47:00.515
-26,-36,67,70,-20,16,26,18,2020-11-12 21:47:00.520
-26,-36,67,70,-20,16,26,18,2020-11-12 21:47:00.526
11,15,17,-29,-13,1,40,8,2020-11-12 21:47:00.533
21,121,-29,-2,-2,-38,-52,-13,2020-11-12 21:47:00.538
21,121,-29,-2,-2,-38,-52,-13,2020-11-12 21:47:00.544
21,121,-29,-2,-2,-38,-52,-13,2020-11-12 21:47:00.550
5,67,-25,-1,8,-7,12,-10,2020-11-12 21:47:00.556
5,67,-25,-1,8,-7,12,-10,2020-11-12 21:47:00.562
6,-10,-58,-4,-7,-1,-23,11,2020-11-12 21:47:00.570
6,-10,-58,-4,-7,-1,-23,11,2020-11-12 21:47:00.576
2,-17,4,0,9,-13,-24,-5,2020-11-12 21:47:00.582
2,-17,4,0,9,-13,-24,-5,2020-11-12 21:47:00.587
5,18,28,12,-9,-20,9,24,2020-11-12 21:47:00.593
-16,-29,-6,5,14,63,-16,29,2020-11-12 21:47:00.599
-16,-29,-6,5,14,63,-16,29,2020-11-12 21:47:00.605
-16,-29,-6,5,14,63,-16,29,2020-11-12 21:47:00.611
-19,-31,-7,-15,-1,3,-4,-42,2020-11-12 21:47:00.618
-19,-31,-7,-15,-1,3,-4,-42,2020-11-12 21:47:00.624
11,22,15,-8,-35,5,98,21,2020-11-12 21:47:00.631
-5,-31,-7,6,9,-20,-1,22,2020-11-12 21:47:00.637
-5,-31,-7,6,9,-20,-1,22,2020-11-12 21:47:00.643
-5,-31,-7,6,9,-20,-1,22,2020-11-12 21:47:00.656
9,-18,-10,-6,19,-21,-7,-7,2020-11-12 21:47:00.662
9,-18,-10,-6,19,-21,-7,-7,2020-11-12 21:47:00.669
-23,-24,-13,-52,-10,-48,13,5,2020-11-12 21:47:00.674
-23,-24,-13,-52,-10,-48,13,5,2020-11-12 21:47:00.681
20,7,8,-2,34,54,98,47,2020-11-12 21:47:00.687
-11,-9,-16,-33,-5,21,105,3,2020-11-12 21:47:00.692
-11,-9,-16,-33,-5,21,105,3,2020-11-12 21:47:00.699
-11,-9,-16,-33,-5,21,105,3,2020-11-12 21:47:00.705
-23,-10,3,13,6,7,5,-77,2020-11-12 21:47:00.710
14,4,-8,16,-17,21,-85,1,2020-11-12 21:47:00.717
14,4,-8,16,-17,21,-85,1,2020-11-12 21:47:00.723
14,4,-8,16,-17,21,-85,1,2020-11-12 21:47:00.729
15,4,19,21,32,-23,-31,16,2020-11-12 21:47:00.736
15,4,19,21,32,-23,-31,16,2020-11-12 21:47:00.741
-5,21,-17,-49,-30,-27,-74,-20,2020-11-12 21:47:00.748
-5,21,-17,-49,-30,-27,-74,-20,2020-11-12 21:47:00.753
-5,21,-17,-49,-30,-27,-74,-20,2020-11-12 21:47:00.759
-5,4,9,55,-12,-6,5,-20,2020-11-12 21:47:00.766
1,34,22,-35,3,-11,20,-4,2020-11-12 21:47:00.772
9,22,11,6,-24,38,-17,20,2020-11-12 21:47:00.777
9,22,11,6,-24,38,-17,20,2020-11-12 21:47:00.783
9,22,11,6,-24,38,-17,20,2020-11-12 21:47:00.789
11,33,43,21,1,17,-11,6,2020-11-12 21:47:00.795
11,33,43,21,1,17,-11,6,2020-11-12 21:47:00.802
0,-14,12,-9,12,12,-3,0,2020-11-12 21:47:00.807
0,-14,12,-9,12,12,-3,0,2020-11-12 21:47:00.814
5,-31,-18,7,2,-7,-70,-62,2020-11-12 21:47:00.819
5,-31,-18,7,2,-7,-70,-62,2020-11-12 21:47:00.825
4,-4,-21,16,18,5,25,16,2020-11-12 21:47:00.832
2,-25,-28,-23,-23,-28,65,32,2020-11-12 21:47:00.838
2,-25,-28,-23,-23,-28,65,32,2020-11-12 21:47:00.843
2,-25,-28,-23,-23,-28,65,32,2020-11-12 21:47:00.858
18,3,-7,-12,11,47,19,33,2020-11-12 21:47:00.865
2,-6,-15,-6,-16,-2,-29,-2,2020-11-12 21:47:00.871
5,15,6,3,10,-29,5,30,2020-11-12 21:47:00.877
5,15,6,3,10,-29,5,30,2020-11-12 21:47:00.884
-14,1,8,6,-18,81,9,18,2020-11-12 21:47:00.889
-14,1,8,6,-18,81,9,18,2020-11-12 21:47:00.895
-21,-19,-10,-23,2,-14,1,-63,2020-11-12 21:47:00.902
-21,-19,-10,-23,2,-14,1,-63,2020-11-12 21:47:00.907
-11,-15,-16,-9,-3,-59,1,9,2020-11-12 21:47:00.914
12,-5,-6,-13,-30,92,13,35,2020-11-12 21:47:00.919
12,-5,-6,-13,-30,92,13,35,2020-11-12 21:47:00.925
1,1,2,-9,10,-28,-37,-49,2020-11-12 21:47:00.931
-38,-18,-17,-12,-9,-78,-65,-99,2020-11-12 21:47:00.937
-38,-18,-17,-12,-9,-78,-65,-99,2020-11-12 21:47:00.942
-38,-18,-17,-12,-9,-78,-65,-99,2020-11-12 21:47:00.949
10,6,10,50,-4,14,43,40,2020-11-12 21:47:00.955
-9,-1,12,30,4,-6,24,-20,2020-11-12 21:47:00.960
-9,-1,12,30,4,-6,24,-20,2020-11-12 21:47:00.967
-1,-12,-12,-53,-6,-42,28,-20,2020-11-12 21:47:00.973
4,12,-9,12,16,-27,22,33,2020-11-12 21:47:00.978
4,12,-9,12,16,-27,22,33,2020-11-12 21:47:00.985
9,-9,7,54,18,47,7,12,2020-11-12 21:47:00.990
2,-25,-27,-42,-7,25,41,20,2020-11-12 21:47:00.995
2,-25,-27,-42,-7,25,41,20,2020-11-12 21:47:01.002
-1,2,-22,48,-9,-38,11,-16,2020-11-12 21:47:01.008
-1,2,-22,48,-9,-38,11,-16,2020-11-12 21:47:01.015
-8,8,16,17,18,-15,12,2,2020-11-12 21:47:01.021
-8,8,16,17,18,-15,12,2,2020-11-12 21:47:01.027
-8,8,16,17,18,-15,12,2,2020-11-12 21:47:01.033
-2,-21,21,-1,1,-2,-4,11,2020-11-12 21:47:01.039
3,-50,35,4,-4,22,62,24,2020-11-12 21:47:01.044
4,20,5,2,10,31,30,10,2020-11-12 21:47:01.059
-1,38,-19,0,5,-1,-6,-10,2020-11-12 21:47:01.066
-10,-11,-10,1,1,-12,-53,-36,2020-11-12 21:47:01.072
11,-1,-12,-3,-1,-15,5,36,2020-11-12 21:47:01.077
11,-1,-12,-3,-1,-15,5,36,2020-11-12 21:47:01.084
11,-1,-12,-3,-1,-15,5,36,2020-11-12 21:47:01.089
3,20,-8,-24,-6,13,11,-8,2020-11-12 21:47:01.095
-27,-5,-5,-8,-7,-3,-8,-23,2020-11-12 21:47:01.101
-4,-8,3,-30,-11,6,-37,3,2020-11-12 21:47:01.107
-4,-8,3,-30,-11,6,-37,3,2020-11-12 21:47:01.131
8,-2,-5,-7,-16,-62,-13,41,2020-11-12 21:47:01.136
8,-2,-5,-7,-16,-62,-13,41,2020-11-12 21:47:01.142
8,-2,-5,-7,-16,-62,-13,41,2020-11-12 21:47:01.149
-3,-1,-12,-14,21,-81,45,-10,2020-11-12 21:47:01.155
-20,-8,-6,-2,1,-31,-37,-75,2020-11-12 21:47:01.160
-20,-8,-6,-2,1,-31,-37,-75,2020-11-12 21:47:01.167
-20,-8,-6,-2,1,-31,-37,-75,2020-11-12 21:47:01.173
2,5,-5,23,15,-65,-128,-21,2020-11-12 21:47:01.178
2,5,-5,23,15,-65,-128,-21,2020-11-12 21:47:01.185
-18,-14,-6,1,-20,86,32,-4,2020-11-12 21:47:01.191
26,21,11,24,18,10,3,45,2020-11-12 21:47:01.197
26,21,11,24,18,10,3,45,2020-11-12 21:47:01.203
26,21,11,24,18,10,3,45,2020-11-12 21:47:01.209
-6,-8,-18,42,10,-13,-31,14,2020-11-12 21:47:01.216
6,47,-14,31,30,3,74,5,2020-11-12 21:47:01.223
6,47,-14,31,30,3,74,5,2020-11-12 21:47:01.229
1,4,5,10,-16,-17,28,1,2020-11-12 21:47:01.236
-19,-3,3,-2,-38,14,-2,-26,2020-11-12 21:47:01.242
-19,-3,3,-2,-38,14,-2,-26,2020-11-12 21:47:01.248
32,36,10,0,-19,-46,-88,26,2020-11-12 21:47:01.263
9,1,-29,-9,-5,52,54,24,2020-11-12 21:47:01.268
7,-5,16,-7,2,87,78,26,2020-11-12 21:47:01.274
-17,-23,10,-5,-1,91,19,-48,2020-11-12 21:47:01.279
-17,-23,10,-5,-1,91,19,-48,2020-11-12 21:47:01.287
-17,-23,10,-5,-1,91,19,-48,2020-11-12 21:47:01.293
-17,-23,10,-5,-1,91,19,-48,2020-11-12 21:47:01.301
-19,-23,-4,-37,-14,31,2,-46,2020-11-12 21:47:01.307
2,-4,1,-24,-7,-11,29,6,2020-11-12 21:47:01.313
-4,-10,0,-5,-9,-22,16,13,2020-11-12 21:47:01.320
-4,-10,0,-5,-9,-22,16,13,2020-11-12 21:47:01.326
-4,-10,0,-5,-9,-22,16,13,2020-11-12 21:47:01.333
16,2,1,-11,-3,1,-23,12,2020-11-12 21:47:01.338
16,2,1,-11,-3,1,-23,12,2020-11-12 21:47:01.343
16,2,1,-11,-3,1,-23,12,2020-11-12 21:47:01.349
4,7,2,21,50,-34,91,-2,2020-11-12 21:47:01.355
-4,-16,-9,-24,-24,33,11,-10,2020-11-12 21:47:01.361
-4,-16,-9,-24,-24,33,11,-10,2020-11-12 21:47:01.368
-18,-12,-13,-19,-19,1,26,-26,2020-11-12 21:47:01.374
12,17,11,25,15,8,44,44,2020-11-12 21:47:01.380
12,17,11,25,15,8,44,44,2020-11-12 21:47:01.386
-12,-11,-3,-14,0,-46,127,14,2020-11-12 21:47:01.392
-8,2,9,12,15,-42,25,12,2020-11-12 21:47:01.398
-8,2,9,12,15,-42,25,12,2020-11-12 21:47:01.404
-8,2,9,12,15,-42,25,12,2020-11-12 21:47:01.410
0,7,3,29,14,-17,31,5,2020-11-12 21:47:01.417
0,7,3,29,14,-17,31,5,2020-11-12 21:47:01.423
5,15,20,28,36,30,-22,-1,2020-11-12 21:47:01.428
5,15,20,28,36,30,-22,-1,2020-11-12 21:47:01.435
1,-10,-6,11,-16,39,28,9,2020-11-12 21:47:01.440
1,-10,-6,11,-16,39,28,9,2020-11-12 21:47:01.446
0,10,15,9,-6,24,5,-21,2020-11-12 21:47:01.453
-24,-3,3,-19,-33,-46,34,-31,2020-11-12 21:47:01.467
-24,-3,3,-19,-33,-46,34,-31,2020-11-12 21:47:01.472
12,-1,-2,-14,29,2,15,-5,2020-11-12 21:47:01.478
6,-5,-3,-14,3,-57,-97,-11,2020-11-12 21:47:01.485
-7,8,5,-18,-9,1,13,6,2020-11-12 21:47:01.491
-11,-8,1,-5,12,-43,-6,-14,2020-11-12 21:47:01.497
-11,-8,1,-5,12,-43,-6,-14,2020-11-12 21:47:01.503
-11,-8,1,-5,12,-43,-6,-14,2020-11-12 21:47:01.509
20,17,10,-4,-2,-55,8,46,2020-11-12 21:47:01.516
-29,-11,-4,-18,22,60,17,-27,2020-11-12 21:47:01.521
-29,-11,-4,-18,22,60,17,-27,2020-11-12 21:47:01.526
-29,-11,-4,-18,22,60,17,-27,2020-11-12 21:47:01.533
20,8,-3,-8,10,20,47,30,2020-11-12 21:47:01.538
20,8,-3,-8,10,20,47,30,2020-11-12 21:47:01.544
-9,-4,6,11,32,67,73,15,2020-11-12 21:47:01.552
-3,-3,-2,-13,20,52,74,11,2020-11-12 21:47:01.557
-3,-3,-2,-13,20,52,74,11,2020-11-12 21:47:01.562
-3,-3,-2,-13,20,52,74,11,2020-11-12 21:47:01.569
15,4,4,11,6,15,-31,27,2020-11-12 21:47:01.574
19,9,-5,-52,-35,-9,-3,13,2020-11-12 21:47:01.580
19,9,-5,-52,-35,-9,-3,13,2020-11-12 21:47:01.586
19,9,-5,-52,-35,-9,-3,13,2020-11-12 21:47:01.592
-2,-13,-13,-2,20,-39,-81,14,2020-11-12 21:47:01.597
-2,-13,-13,-2,20,-39,-81,14,2020-11-12 21:47:01.604
-3,-24,4,21,1,37,37,1,2020-11-12 21:47:01.609
-3,-24,4,21,1,37,37,1,2020-11-12 21:47:01.616
10,6,28,45,28,11,-41,-11,2020-11-12 21:47:01.621
10,6,28,45,28,11,-41,-11,2020-11-12 21:47:01.627
-9,-20,4,-2,-39,26,-46,-19,2020-11-12 21:47:01.634
8,-4,37,-1,-20,-77,-32,14,2020-11-12 21:47:01.640
8,-4,37,-1,-20,-77,-32,14,2020-11-12 21:47:01.645
8,-4,37,-1,-20,-77,-32,14,2020-11-12 21:47:01.652
-6,-7,-9,-20,5,27,-92,-39,2020-11-12 21:47:01.658
-6,-7,-9,-20,5,27,-92,-39,2020-11-12 21:47:01.673
33,31,1,14,-7,29,66,84,2020-11-12 21:47:01.678
33,31,1,14,-7,29,66,84,2020-11-12 21:47:01.685
33,31,1,14,-7,29,66,84,2020-11-12 21:47:01.690
-3,12,7,-1,17,9,-23,-41,2020-11-12 21:47:01.696
-9,-6,3,6,5,-19,-23,-11,2020-11-12 21:47:01.703
-9,-6,3,6,5,-19,-23,-11,2020-11-12 21:47:01.708
-9,-6,3,6,5,-19,-23,-11,2020-11-12 21:47:01.715
-12,-5,4,6,-8,38,40,-13,2020-11-12 21:47:01.720
-12,-5,4,6,-8,38,40,-13,2020-11-12 21:47:01.725
12,9,1,-7,-16,-82,-32,-19,2020-11-12 21:47:01.732
17,3,-10,1,-16,-73,-72,41,2020-11-12 21:47:01.738
17,3,-10,1,-16,-73,-72,41,2020-11-12 21:47:01.744
17,3,-10,1,-16,-73,-72,41,2020-11-12 21:47:01.750
-4,-3,-6,-15,-17,24,7,9,2020-11-12 21:47:01.756
-34,-21,-23,-4,-29,-43,-22,-18,2020-11-12 21:47:01.762
-34,-21,-23,-4,-29,-43,-22,-18,2020-11-12 21:47:01.768
-34,-21,-23,-4,-29,-43,-22,-18,2020-11-12 21:47:01.773
-18,-4,-11,-18,14,29,-43,-75,2020-11-12 21:47:01.779
-18,-4,-11,-18,14,29,-43,-75,2020-11-12 21:47:01.786
1,-3,2,40,7,-24,-47,-13,2020-11-12 21:47:01.792
15,1,-15,-2,-2,-31,126,16,2020-11-12 21:47:01.798
15,1,-15,-2,-2,-31,126,16,2020-11-12 21:47:01.804
15,1,-15,-2,-2,-31,126,16,2020-11-12 21:47:01.809
9,10,-36,-8,-17,-42,8,6,2020-11-12 21:47:01.817
-11,-15,-1,35,14,35,36,-5,2020-11-12 21:47:01.823
-11,-15,-1,35,14,35,36,-5,2020-11-12 21:47:01.828
-10,-15,6,-18,-50,2,64,21,2020-11-12 21:47:01.835
3,27,12,-13,10,-15,-10,5,2020-11-12 21:47:01.840
3,27,12,-13,10,-15,-10,5,2020-11-12 21:47:01.846
2,15,-39,-17,-7,28,12,13,2020-11-12 21:47:01.853
11,-13,-20,-44,-19,13,-20,7,2020-11-12 21:47:01.858
11,-13,-20,-44,-19,13,-20,7,2020-11-12 21:47:01.874
-7,8,11,21,20,6,0,-12,2020-11-12 21:47:01.879
-7,8,11,21,20,6,0,-12,2020-11-12 21:47:01.885
-7,8,11,21,20,6,0,-12,2020-11-12 21:47:01.891
-2,-8,13,-3,-30,-95,41,-16,2020-11-12 21:47:01.897
-2,-8,13,-3,-30,-95,41,-16,2020-11-12 21:47:01.905
24,-3,4,7,-7,6,26,21,2020-11-12 21:47:01.910
24,-3,4,7,-7,6,26,21,2020-11-12 21:47:01.917
-4,-11,6,-6,-27,24,-22,-15,2020-11-12 21:47:01.923
-4,-11,6,-6,-27,24,-22,-15,2020-11-12 21:47:01.928
-20,-17,-9,-2,14,-78,-91,-21,2020-11-12 21:47:01.935
-20,-17,-9,-2,14,-78,-91,-21,2020-11-12 21:47:01.941
3,10,-1,5,0,104,18,8,2020-11-12 21:47:01.947
3,10,-1,5,0,104,18,8,2020-11-12 21:47:01.954
13,2,-8,0,-4,-13,-45,33,2020-11-12 21:47:01.959
13,2,-8,0,-4,-13,-45,33,2020-11-12 21:47:01.966
-16,-15,1,8,44,43,115,-12,2020-11-12 21:47:01.972
17,6,12,1,-57,-2,50,60,2020-11-12 21:47:01.977
17,6,12,1,-57,-2,50,60,2020-11-12 21:47:01.984
17,6,12,1,-57,-2,50,60,2020-11-12 21:47:01.989
-4,-7,3,9,-20,-49,-101,-21,2020-11-12 21:47:01.995
1,14,0,10,27,8,-1,-17,2020-11-12 21:47:02.002
1,14,0,10,27,8,-1,-17,2020-11-12 21:47:02.007
1,14,0,10,27,8,-1,-17,2020-11-12 21:47:02.013
11,7,2,-36,0,46,50,37,2020-11-12 21:47:02.020
-12,-6,11,32,13,-10,-72,-29,2020-11-12 21:47:02.026
15,6,-5,-14,-2,77,70,16,2020-11-12 21:47:02.033
-10,-67,5,8,6,-13,-17,-22,2020-11-12 21:47:02.038
-10,-67,5,8,6,-13,-17,-22,2020-11-12 21:47:02.044
-10,-67,5,8,6,-13,-17,-22,2020-11-12 21:47:02.051
-4,-6,-8,-50,-11,13,21,12,2020-11-12 21:47:02.057
25,49,-3,35,12,0,-4,28,2020-11-12 21:47:02.062
25,49,-3,35,12,0,-4,28,2020-11-12 21:47:02.076
0,24,9,-61,6,-24,-2,2,2020-11-12 21:47:02.083
0,24,9,-61,6,-24,-2,2,2020-11-12 21:47:02.088
0,24,9,-61,6,-24,-2,2,2020-11-12 21:47:02.094
-7,-9,-10,-4,-14,70,56,14,2020-11-12 21:47:02.100
-7,-9,-10,-4,-14,70,56,14,2020-11-12 21:47:02.106
-6,0,-3,5,31,17,60,-7,2020-11-12 21:47:02.114
16,7,10,8,43,45,44,-34,2020-11-12 21:47:02.122
16,7,10,8,43,45,44,-34,2020-11-12 21:47:02.128
-15,-8,5,-2,-16,-7,-42,-42,2020-11-12 21:47:02.135
-17,1,-5,18,2,25,-4,-15,2020-11-12 21:47:02.140
-17,1,-5,18,2,25,-4,-15,2020-11-12 21:47:02.145
-17,1,-5,18,2,25,-4,-15,2020-11-12 21:47:02.152
-17,1,-5,18,2,25,-4,-15,2020-11-12 21:47:02.157
-17,1,-5,18,2,25,-4,-15,2020-11-12 21:47:02.163
2,2,-7,7,-3,-53,-21,13,2020-11-12 21:47:02.170
-6,-10,-17,-10,-23,-18,-45,-6,2020-11-12 21:47:02.176
-2,-8,-16,-19,-15,7,8,49,2020-11-12 21:47:02.183
-2,-8,-16,-19,-15,7,8,49,2020-11-12 21:47:02.188
38,14,13,-3,-15,9,9,88,2020-11-12 21:47:02.194
-3,-7,-3,24,-34,-69,13,3,2020-11-12 21:47:02.201
-3,-7,-3,24,-34,-69,13,3,2020-11-12 21:47:02.206
-3,-7,-3,24,-34,-69,13,3,2020-11-12 21:47:02.212
4,7,2,23,9,74,75,11,2020-11-12 21:47:02.219
2,-8,-13,-7,13,14,27,17,2020-11-12 21:47:02.225
2,-8,-13,-7,13,14,27,17,2020-11-12 21:47:02.230
