Raw EMG - Pod01,Raw EMG - Pod02,Raw EMG - Pod03,Raw EMG - Pod04,Raw EMG - Pod05,Raw EMG - Pod06,Raw EMG - Pod07,Raw EMG - Pod08,Timestamp
-5,-31,-20,-3,-2,-1,-1,0,2020-11-12 23:21:39.406
-5,-31,-20,-3,-2,-1,-1,0,2020-11-12 23:21:39.411
-8,-12,-5,4,-1,0,2,3,2020-11-12 23:21:39.416
0,2,-1,5,7,-1,-6,-1,2020-11-12 23:21:39.420
0,2,-1,5,7,-1,-6,-1,2020-11-12 23:21:39.425
0,2,-1,5,7,-1,-6,-1,2020-11-12 23:21:39.430
0,2,-1,5,7,-1,-6,-1,2020-11-12 23:21:39.436
-11,-6,-9,-1,-6,1,1,-4,2020-11-12 23:21:39.443
-11,-6,-9,-1,-6,1,1,-4,2020-11-12 23:21:39.450
-3,22,-3,-6,-21,-5,-7,-8,2020-11-12 23:21:39.455
15,11,16,5,10,2,2,1,2020-11-12 23:21:39.461
15,11,16,5,10,2,2,1,2020-11-12 23:21:39.467
15,11,16,5,10,2,2,1,2020-11-12 23:21:39.472
2,-7,3,1,1,-2,0,-2,2020-11-12 23:21:39.479
-3,7,0,-1,2,0,0,0,2020-11-12 23:21:39.485
-3,7,0,-1,2,0,0,0,2020-11-12 23:21:39.491
-3,7,0,-1,2,0,0,0,2020-11-12 23:21:39.498
-8,-10,-4,-1,-2,-2,-2,-7,2020-11-12 23:21:39.503
-8,-10,-4,-1,-2,-2,-2,-7,2020-11-12 23:21:39.510
-1,1,-1,5,5,2,5,5,2020-11-12 23:21:39.516
-1,3,24,-3,-1,-2,-1,-3,2020-11-12 23:21:39.522
-1,3,24,-3,-1,-2,-1,-3,2020-11-12 23:21:39.529
-1,3,24,-3,-1,-2,-1,-3,2020-11-12 23:21:39.535
-3,-11,-10,-9,-6,-4,-1,1,2020-11-12 23:21:39.541
1,5,5,2,3,2,4,6,2020-11-12 23:21:39.547
1,5,5,2,3,2,4,6,2020-11-12 23:21:39.552
-3,6,12,6,3,-1,-3,-2,2020-11-12 23:21:39.558
-3,6,12,6,3,-1,-3,-2,2020-11-12 23:21:39.565
4,4,-3,-3,-2,-2,2,3,2020-11-12 23:21:39.571
3,-17,-12,6,18,2,2,1,2020-11-12 23:21:39.578
-3,-2,-11,-3,3,-2,-2,-6,2020-11-12 23:21:39.585
-3,-2,-11,-3,3,-2,-2,-6,2020-11-12 23:21:39.591
2,-3,-7,1,3,1,-1,2,2020-11-12 23:21:39.598
-3,-3,2,3,1,1,-5,-7,2020-11-12 23:21:39.604
-3,-3,2,3,1,1,-5,-7,2020-11-12 23:21:39.610
-3,-3,2,3,1,1,-5,-7,2020-11-12 23:21:39.625
-2,11,-8,-18,-13,-3,-1,2,2020-11-12 23:21:39.631
-5,-11,-1,3,3,-1,-3,-6,2020-11-12 23:21:39.638
0,-6,-10,5,1,0,0,-1,2020-11-12 23:21:39.644
0,-6,-10,5,1,0,0,-1,2020-11-12 23:21:39.650
2,4,7,4,3,2,-1,4,2020-11-12 23:21:39.656
2,4,7,4,3,2,-1,4,2020-11-12 23:21:39.662
6,-3,-8,-19,-22,-6,0,2,2020-11-12 23:21:39.668
6,-3,-8,-19,-22,-6,0,2,2020-11-12 23:21:39.673
6,-3,-8,-19,-22,-6,0,2,2020-11-12 23:21:39.680
-7,-13,-2,0,1,1,3,-2,2020-11-12 23:21:39.686
13,13,8,4,1,3,2,4,2020-11-12 23:21:39.692
-2,-3,-5,-16,-9,-5,-5,-4,2020-11-12 23:21:39.699
-6,-15,-3,-2,2,-3,-2,-6,2020-11-12 23:21:39.705
-6,-15,-3,-2,2,-3,-2,-6,2020-11-12 23:21:39.711
-3,-7,-1,4,6,1,0,2,2020-11-12 23:21:39.718
-4,-10,-5,0,-3,-1,-2,-1,2020-11-12 23:21:39.722
-4,-10,-5,0,-3,-1,-2,-1,2020-11-12 23:21:39.728
-4,-10,-5,0,-3,-1,-2,-1,2020-11-12 23:21:39.734
3,14,2,6,7,0,2,1,2020-11-12 23:21:39.740
3,14,2,6,7,0,2,1,2020-11-12 23:21:39.746
0,4,-6,-7,-6,-4,0,0,2020-11-12 23:21:39.752
0,4,-6,-7,-6,-4,0,0,2020-11-12 23:21:39.758
-2,-13,-5,0,4,0,-3,-3,2020-11-12 23:21:39.764
-2,-13,-5,0,4,0,-3,-3,2020-11-12 23:21:39.770
-4,2,4,1,-3,-2,-2,-5,2020-11-12 23:21:39.777
3,-4,11,0,1,2,2,4,2020-11-12 23:21:39.782
3,-4,11,0,1,2,2,4,2020-11-12 23:21:39.788
3,-4,11,0,1,2,2,4,2020-11-12 23:21:39.795
2,-3,2,1,0,1,3,2,2020-11-12 23:21:39.800
2,-3,2,1,0,1,3,2,2020-11-12 23:21:39.807
3,-6,-9,-3,-1,1,2,2,2020-11-12 23:21:39.813
3,-6,-9,-3,-1,1,2,2,2020-11-12 23:21:39.818
-1,-7,-4,6,0,2,1,0,2020-11-12 23:21:39.824
-1,-7,-4,6,0,2,1,0,2020-11-12 23:21:39.830
-4,-4,-5,-2,-8,-2,-6,-10,2020-11-12 23:21:39.836
1,-20,-7,2,10,0,3,5,2020-11-12 23:21:39.841
-5,-6,-10,-4,-6,-2,-2,-2,2020-11-12 23:21:39.848
-5,-6,-10,-4,-6,-2,-2,-2,2020-11-12 23:21:39.854
-2,-2,-7,-8,-9,-1,-2,-1,2020-11-12 23:21:39.860
-2,-2,-7,-8,-9,-1,-2,-1,2020-11-12 23:21:39.866
-2,-3,1,2,-1,0,2,1,2020-11-12 23:21:39.872
-2,-3,1,2,-1,0,2,1,2020-11-12 23:21:39.878
4,8,-5,1,-2,0,4,5,2020-11-12 23:21:39.884
4,8,-5,1,-2,0,4,5,2020-11-12 23:21:39.889
1,11,2,0,-4,-4,-2,-1,2020-11-12 23:21:39.896
3,1,10,1,4,1,2,2,2020-11-12 23:21:39.902
3,1,10,1,4,1,2,2,2020-11-12 23:21:39.907
3,1,10,1,4,1,2,2,2020-11-12 23:21:39.914
-2,2,4,1,-6,-5,-2,-2,2020-11-12 23:21:39.920
-2,2,4,1,-6,-5,-2,-2,2020-11-12 23:21:39.927
-1,9,4,-6,-6,-5,-4,-2,2020-11-12 23:21:39.932
-1,9,4,-6,-6,-5,-4,-2,2020-11-12 23:21:39.938
-3,3,7,-2,2,0,-3,-6,2020-11-12 23:21:39.945
-3,3,7,-2,2,0,-3,-6,2020-11-12 23:21:39.951
4,18,5,-3,-3,-1,-2,1,2020-11-12 23:21:39.957
-5,2,0,1,3,1,-3,-4,2020-11-12 23:21:39.963
-5,2,0,1,3,1,-3,-4,2020-11-12 23:21:39.969
-5,2,0,1,3,1,-3,-4,2020-11-12 23:21:39.975
0,-4,-4,0,-2,-1,0,-3,2020-11-12 23:21:39.981
2,-8,-8,-3,-1,1,3,5,2020-11-12 23:21:39.988
-2,2,-1,3,-1,-1,0,-1,2020-11-12 23:21:39.993
-2,2,-1,3,-1,-1,0,-1,2020-11-12 23:21:40.000
-3,-5,-3,-7,-9,-4,-5,-4,2020-11-12 23:21:40.006
-3,-5,-3,-7,-9,-4,-5,-4,2020-11-12 23:21:40.012
5,40,10,1,2,0,2,6,2020-11-12 23:21:40.017
1,-6,-3,2,3,-2,-1,-2,2020-11-12 23:21:40.023
1,-6,-3,2,3,-2,-1,-2,2020-11-12 23:21:40.030
1,-6,-3,2,3,-2,-1,-2,2020-11-12 23:21:40.035
-8,-16,-3,-2,-2,-1,-3,-3,2020-11-12 23:21:40.041
-7,-9,6,-1,1,-2,-2,-4,2020-11-12 23:21:40.047
4,-8,-2,-2,-3,-1,1,0,2020-11-12 23:21:40.053
4,-8,-2,-2,-3,-1,1,0,2020-11-12 23:21:40.059
-1,-1,-4,0,-1,-2,1,2,2020-11-12 23:21:40.066
-1,-1,-4,0,-1,-2,1,2,2020-11-12 23:21:40.072
-1,7,-11,-1,-1,1,5,5,2020-11-12 23:21:40.079
-2,5,-1,-2,-1,0,-2,-3,2020-11-12 23:21:40.085
-2,5,-1,-2,-1,0,-2,-3,2020-11-12 23:21:40.090
-2,5,-1,-2,-1,0,-2,-3,2020-11-12 23:21:40.096
3,-4,4,0,0,-1,0,1,2020-11-12 23:21:40.102
-4,-6,0,0,0,-1,-1,0,2020-11-12 23:21:40.107
-4,-6,0,0,0,-1,-1,0,2020-11-12 23:21:40.114
-4,-6,0,0,0,-1,-1,0,2020-11-12 23:21:40.119
2,-6,-3,0,-7,0,2,3,2020-11-12 23:21:40.125
2,-6,-3,0,-7,0,2,3,2020-11-12 23:21:40.132
3,0,-3,-2,-3,-2,1,-1,2020-11-12 23:21:40.138
2,21,5,-1,1,-1,0,0,2020-11-12 23:21:40.145
2,21,5,-1,1,-1,0,0,2020-11-12 23:21:40.151
2,21,5,-1,1,-1,0,0,2020-11-12 23:21:40.157
-3,-8,6,0,1,0,-3,-3,2020-11-12 23:21:40.163
0,5,-9,-1,1,0,4,7,2020-11-12 23:21:40.170
0,5,-9,-1,1,0,4,7,2020-11-12 23:21:40.178
0,-1,2,0,-1,1,-2,0,2020-11-12 23:21:40.184
0,-1,2,0,-1,1,-2,0,2020-11-12 23:21:40.190
-5,-3,-6,-2,0,1,0,-1,2020-11-12 23:21:40.197
-1,-11,-14,-3,-3,0,-2,-5,2020-11-12 23:21:40.202
-1,-11,-14,-3,-3,0,-2,-5,2020-11-12 23:21:40.208
-1,-11,-14,-3,-3,0,-2,-5,2020-11-12 23:21:40.214
6,-7,-3,1,-1,0,2,1,2020-11-12 23:21:40.220
-5,-31,-19,-2,4,0,1,0,2020-11-12 23:21:40.226
-5,-31,-19,-2,4,0,1,0,2020-11-12 23:21:40.232
-5,-31,-19,-2,4,0,1,0,2020-11-12 23:21:40.238
6,1,9,2,-3,1,-1,2,2020-11-12 23:21:40.246
6,1,9,2,-3,1,-1,2,2020-11-12 23:21:40.252
-1,-6,-6,-3,-8,-4,-4,2,2020-11-12 23:21:40.258
-2,5,6,1,7,0,-4,-5,2020-11-12 23:21:40.264
-2,5,6,1,7,0,-4,-5,2020-11-12 23:21:40.269
-2,5,6,1,7,0,-4,-5,2020-11-12 23:21:40.275
-1,-9,1,-2,1,1,-2,-4,2020-11-12 23:21:40.291
-4,28,12,0,-2,-2,-2,-3,2020-11-12 23:21:40.298
0,-4,3,-1,-2,0,1,2,2020-11-12 23:21:40.304
0,-4,3,-1,-2,0,1,2,2020-11-12 23:21:40.310
-7,-4,4,2,3,2,2,0,2020-11-12 23:21:40.316
3,-3,-2,1,-1,-2,-2,1,2020-11-12 23:21:40.322
3,-3,-2,1,-1,-2,-2,1,2020-11-12 23:21:40.328
3,-3,-2,1,-1,-2,-2,1,2020-11-12 23:21:40.334
-3,-20,-12,4,4,1,8,7,2020-11-12 23:21:40.340
-2,1,-2,-3,-5,-2,-1,-3,2020-11-12 23:21:40.347
-2,1,-2,-3,-5,-2,-1,-3,2020-11-12 23:21:40.354
-2,1,-2,-3,-5,-2,-1,-3,2020-11-12 23:21:40.360
-1,3,1,1,3,-1,1,3,2020-11-12 23:21:40.367
-1,3,1,1,3,-1,1,3,2020-11-12 23:21:40.373
-3,11,0,-4,-4,-3,-4,-4,2020-11-12 23:21:40.381
4,-13,-2,-1,-12,-2,1,1,2020-11-12 23:21:40.386
4,-13,-2,-1,-12,-2,1,1,2020-11-12 23:21:40.392
4,-13,-2,-1,-12,-2,1,1,2020-11-12 23:21:40.399
-10,-9,-2,-2,0,-2,-4,-8,2020-11-12 23:21:40.405
-10,-9,-2,-2,0,-2,-4,-8,2020-11-12 23:21:40.411
-10,-9,-2,-2,0,-2,-4,-8,2020-11-12 23:21:40.418
-8,-13,3,0,1,0,-3,-5,2020-11-12 23:21:40.423
-8,-13,3,0,1,0,-3,-5,2020-11-12 23:21:40.429
-3,3,2,0,-1,-1,0,-1,2020-11-12 23:21:40.436
1,10,-2,1,0,1,-1,0,2020-11-12 23:21:40.442
1,10,-2,1,0,1,-1,0,2020-11-12 23:21:40.450
1,10,-2,1,0,1,-1,0,2020-11-12 23:21:40.456
1,7,13,0,-1,-1,-3,-1,2020-11-12 23:21:40.463
-1,2,7,-1,-4,0,1,-1,2020-11-12 23:21:40.468
-1,2,7,-1,-4,0,1,-1,2020-11-12 23:21:40.474
-1,2,7,-1,-4,0,1,-1,2020-11-12 23:21:40.480
3,14,1,2,11,1,-2,1,2020-11-12 23:21:40.486
3,14,1,2,11,1,-2,1,2020-11-12 23:21:40.492
-3,3,-4,0,-4,-2,3,2,2020-11-12 23:21:40.499
0,4,-2,-1,2,-1,1,2,2020-11-12 23:21:40.505
0,4,-2,-1,2,-1,1,2,2020-11-12 23:21:40.512
1,-2,5,1,-3,-1,-4,-5,2020-11-12 23:21:40.517
1,-2,5,1,-3,-1,-4,-5,2020-11-12 23:21:40.523
-3,-11,-11,-3,-4,-2,1,-3,2020-11-12 23:21:40.530
-3,-11,-11,-3,-4,-2,1,-3,2020-11-12 23:21:40.536
5,4,3,0,-1,2,5,7,2020-11-12 23:21:40.541
5,4,3,0,-1,2,5,7,2020-11-12 23:21:40.548
5,4,3,0,-1,2,5,7,2020-11-12 23:21:40.554
1,6,3,0,-4,-2,-2,0,2020-11-12 23:21:40.560
-1,10,2,10,20,3,1,1,2020-11-12 23:21:40.566
-1,10,2,10,20,3,1,1,2020-11-12 23:21:40.572
-6,16,-9,-12,-16,-3,-4,-4,2020-11-12 23:21:40.579
-2,-4,-5,-1,-1,-2,-3,-8,2020-11-12 23:21:40.585
-2,-4,-5,-1,-1,-2,-3,-8,2020-11-12 23:21:40.590
-2,-4,-5,-1,-1,-2,-3,-8,2020-11-12 23:21:40.599
-2,-11,-2,-1,-2,-2,-3,-2,2020-11-12 23:21:40.605
-2,-11,-2,-1,-2,-2,-3,-2,2020-11-12 23:21:40.611
0,0,-1,-1,-6,-1,-2,0,2020-11-12 23:21:40.617
-2,-4,-2,1,2,1,6,2,2020-11-12 23:21:40.623
4,-5,0,-3,-5,0,-3,4,2020-11-12 23:21:40.630
4,-5,0,-3,-5,0,-3,4,2020-11-12 23:21:40.636
2,5,2,1,2,0,-4,-2,2020-11-12 23:21:40.642
-2,-4,-10,-3,-7,-1,-2,-1,2020-11-12 23:21:40.649
-2,-4,-10,-3,-7,-1,-2,-1,2020-11-12 23:21:40.654
-2,-4,-10,-3,-7,-1,-2,-1,2020-11-12 23:21:40.661
-1,13,-5,-7,-20,-7,-2,-4,2020-11-12 23:21:40.666
-1,13,-5,-7,-20,-7,-2,-4,2020-11-12 23:21:40.672
-4,-10,-14,-1,1,1,2,1,2020-11-12 23:21:40.679
-5,15,9,-2,7,2,0,-5,2020-11-12 23:21:40.685
-5,15,9,-2,7,2,0,-5,2020-11-12 23:21:40.691
-5,15,9,-2,7,2,0,-5,2020-11-12 23:21:40.697
2,-4,9,3,5,-2,1,3,2020-11-12 23:21:40.703
-2,-9,-1,-1,-2,0,-1,-3,2020-11-12 23:21:40.709
-2,-9,-1,-1,-2,0,-1,-3,2020-11-12 23:21:40.715
-1,3,-1,0,-3,-2,-1,0,2020-11-12 23:21:40.720
0,-7,6,-2,-1,1,-2,-4,2020-11-12 23:21:40.726
0,-7,6,-2,-1,1,-2,-4,2020-11-12 23:21:40.732
-8,-5,-3,-1,-6,-3,-5,-6,2020-11-12 23:21:40.738
-1,2,-4,2,2,-1,0,1,2020-11-12 23:21:40.745
-1,2,-4,2,2,-1,0,1,2020-11-12 23:21:40.751
-1,2,-4,2,2,-1,0,1,2020-11-12 23:21:40.757
-2,-6,-4,-2,-11,-3,-2,-4,2020-11-12 23:21:40.763
0,-5,0,3,-6,0,2,6,2020-11-12 23:21:40.769
0,-5,0,3,-6,0,2,6,2020-11-12 23:21:40.775
0,-5,0,3,-6,0,2,6,2020-11-12 23:21:40.781
2,0,-2,-3,2,1,1,0,2020-11-12 23:21:40.787
2,0,-2,-3,2,1,1,0,2020-11-12 23:21:40.793
-3,0,2,1,3,0,1,3,2020-11-12 23:21:40.799
-5,-23,2,-1,3,0,2,5,2020-11-12 23:21:40.805
-5,-23,2,-1,3,0,2,5,2020-11-12 23:21:40.812
-5,-23,2,-1,3,0,2,5,2020-11-12 23:21:40.817
-2,3,2,-1,2,1,-2,-5,2020-11-12 23:21:40.823
-2,3,2,-1,2,1,-2,-5,2020-11-12 23:21:40.830
-1,2,0,0,-4,-4,0,-2,2020-11-12 23:21:40.836
1,-3,-1,-1,2,-2,-2,-1,2020-11-12 23:21:40.840
0,-2,-5,1,5,0,-3,-5,2020-11-12 23:21:40.847
0,-2,-5,1,5,0,-3,-5,2020-11-12 23:21:40.852
5,7,5,0,0,-1,6,4,2020-11-12 23:21:40.858
-2,2,1,-6,-8,-1,-3,-3,2020-11-12 23:21:40.864
-2,2,1,-6,-8,-1,-3,-3,2020-11-12 23:21:40.870
-2,2,1,-6,-8,-1,-3,-3,2020-11-12 23:21:40.876
0,2,2,2,1,0,-3,-3,2020-11-12 23:21:40.883
3,5,4,-3,-6,1,3,7,2020-11-12 23:21:40.889
3,5,4,-3,-6,1,3,7,2020-11-12 23:21:40.896
-4,-12,-1,-1,-3,-1,-1,-3,2020-11-12 23:21:40.902
-1,17,11,0,6,-1,-3,-4,2020-11-12 23:21:40.907
-1,17,11,0,6,-1,-3,-4,2020-11-12 23:21:40.914
-4,-6,-16,-5,-4,-2,-4,-3,2020-11-12 23:21:40.919
-5,11,-11,2,2,3,3,-3,2020-11-12 23:21:40.925
-5,11,-11,2,2,3,3,-3,2020-11-12 23:21:40.931
-5,11,-11,2,2,3,3,-3,2020-11-12 23:21:40.937
3,8,15,2,1,-3,6,6,2020-11-12 23:21:40.943
-5,-6,0,0,2,0,0,-3,2020-11-12 23:21:40.949
-5,-6,0,0,2,0,0,-3,2020-11-12 23:21:40.955
6,5,-1,-1,-1,-1,0,2,2020-11-12 23:21:40.961
0,-2,-2,0,3,2,2,3,2020-11-12 23:21:40.978
4,-5,11,0,-10,0,-2,-3,2020-11-12 23:21:40.984
4,-5,11,0,-10,0,-2,-3,2020-11-12 23:21:40.990
10,-7,1,2,2,2,2,4,2020-11-12 23:21:40.997
-4,-1,0,-2,-1,-2,-3,-4,2020-11-12 23:21:41.003
-2,-8,-1,0,-5,-2,-3,-3,2020-11-12 23:21:41.009
-2,-8,-1,0,-5,-2,-3,-3,2020-11-12 23:21:41.017
4,16,2,3,9,3,4,4,2020-11-12 23:21:41.023
-4,-7,-9,-2,-1,0,3,-3,2020-11-12 23:21:41.029
-4,-7,-9,-2,-1,0,3,-3,2020-11-12 23:21:41.035
-4,-7,-9,-2,-1,0,3,-3,2020-11-12 23:21:41.041
3,20,-3,0,5,-1,-2,0,2020-11-12 23:21:41.047
3,20,-3,0,5,-1,-2,0,2020-11-12 23:21:41.054
-11,11,8,-2,-12,-2,-4,-8,2020-11-12 23:21:41.059
-2,-15,-7,-4,-1,-2,-5,-4,2020-11-12 23:21:41.066
-2,-15,-7,-4,-1,-2,-5,-4,2020-11-12 23:21:41.071
-2,-15,-7,-4,-1,-2,-5,-4,2020-11-12 23:21:41.078
1,1,-8,0,-1,0,-4,-2,2020-11-12 23:21:41.084
0,-5,4,2,-4,-2,1,2,2020-11-12 23:21:41.089
0,-5,4,2,-4,-2,1,2,2020-11-12 23:21:41.096
0,-5,4,2,-4,-2,1,2,2020-11-12 23:21:41.101
-1,-4,-3,-3,-6,-5,-1,-1,2020-11-12 23:21:41.107
-1,-4,-3,-3,-6,-5,-1,-1,2020-11-12 23:21:41.115
0,-3,-1,3,8,0,-1,-2,2020-11-12 23:21:41.121
-3,-24,-19,-4,-1,0,4,4,2020-11-12 23:21:41.127
-3,-24,-19,-4,-1,0,4,4,2020-11-12 23:21:41.134
-3,-24,-19,-4,-1,0,4,4,2020-11-12 23:21:41.139
-1,-5,3,1,4,2,2,5,2020-11-12 23:21:41.147
-2,-2,9,1,2,-1,-3,-1,2020-11-12 23:21:41.153
-2,-2,9,1,2,-1,-3,-1,2020-11-12 23:21:41.159
3,0,-2,1,7,3,2,6,2020-11-12 23:21:41.165
3,0,-2,1,7,3,2,6,2020-11-12 23:21:41.171
3,0,-2,1,7,3,2,6,2020-11-12 23:21:41.177
4,0,5,-3,-13,-3,0,9,2020-11-12 23:21:41.183
1,6,1,-6,-3,-2,-3,-1,2020-11-12 23:21:41.189
1,6,1,-6,-3,-2,-3,-1,2020-11-12 23:21:41.196
-1,1,4,4,4,0,0,-5,2020-11-12 23:21:41.202
5,3,-10,-2,-5,0,-2,1,2020-11-12 23:21:41.208
5,3,-10,-2,-5,0,-2,1,2020-11-12 23:21:41.214
5,3,-10,-2,-5,0,-2,1,2020-11-12 23:21:41.220
-7,0,0,4,6,0,-5,-7,2020-11-12 23:21:41.226
-7,0,0,4,6,0,-5,-7,2020-11-12 23:21:41.233
0,3,-5,3,4,1,3,2,2020-11-12 23:21:41.238
-2,-2,-2,-4,-12,-2,-2,-1,2020-11-12 23:21:41.244
-2,-2,-2,-4,-12,-2,-2,-1,2020-11-12 23:21:41.251
-2,-2,-2,-4,-12,-2,-2,-1,2020-11-12 23:21:41.257
-2,-2,-2,-4,-12,-2,-2,-1,2020-11-12 23:21:41.263
1,5,0,0,5,1,3,1,2020-11-12 23:21:41.269
-1,-8,9,1,2,0,3,-2,2020-11-12 23:21:41.275
-1,-8,9,1,2,0,3,-2,2020-11-12 23:21:41.281
1,-2,1,2,5,1,-2,-4,2020-11-12 23:21:41.287
1,-2,1,2,5,1,-2,-4,2020-11-12 23:21:41.292
2,-13,1,1,-4,-1,2,2,2020-11-12 23:21:41.299
-3,5,3,2,5,1,-4,-5,2020-11-12 23:21:41.304
-3,5,3,2,5,1,-4,-5,2020-11-12 23:21:41.310
-3,5,3,2,5,1,-4,-5,2020-11-12 23:21:41.317
2,8,12,0,-4,0,-3,1,2020-11-12 23:21:41.323
-5,-1,-1,-1,-6,-3,-2,-3,2020-11-12 23:21:41.329
-5,-1,-1,-1,-6,-3,-2,-3,2020-11-12 23:21:41.335
-5,-1,-1,-1,-6,-3,-2,-3,2020-11-12 23:21:41.341
0,5,0,1,1,-1,2,2,2020-11-12 23:21:41.348
0,5,0,1,1,-1,2,2,2020-11-12 23:21:41.354
-3,-4,-6,3,5,0,-3,-4,2020-11-12 23:21:41.360
2,6,-5,-11,-13,-2,0,4,2020-11-12 23:21:41.368
2,6,-5,-11,-13,-2,0,4,2020-11-12 23:21:41.374
2,6,-5,-11,-13,-2,0,4,2020-11-12 23:21:41.381
-1,-1,6,1,-3,-1,-1,-1,2020-11-12 23:21:41.387
-5,-11,-5,0,2,-2,-1,-3,2020-11-12 23:21:41.393
-5,-11,-5,0,2,-2,-1,-3,2020-11-12 23:21:41.399
-5,-11,-5,0,2,-2,-1,-3,2020-11-12 23:21:41.405
4,8,-3,2,12,4,-1,2,2020-11-12 23:21:41.411
2,2,4,-8,-20,-6,1,0,2020-11-12 23:21:41.417
-3,-4,-3,1,-1,0,-2,-4,2020-11-12 23:21:41.423
2,4,3,4,7,2,0,-1,2020-11-12 23:21:41.429
2,4,3,4,7,2,0,-1,2020-11-12 23:21:41.435
0,-3,1,-4,-4,-3,-2,-2,2020-11-12 23:21:41.441
-3,4,-17,-4,2,0,-2,-3,2020-11-12 23:21:41.449
-3,4,-17,-4,2,0,-2,-3,2020-11-12 23:21:41.455
-3,4,-17,-4,2,0,-2,-3,2020-11-12 23:21:41.461
2,4,-6,-4,-5,-1,3,8,2020-11-12 23:21:41.468
3,1,7,2,2,1,1,2,2020-11-12 23:21:41.473
-2,-6,-3,-3,-8,-2,-6,-5,2020-11-12 23:21:41.480
-3,-9,-2,7,10,2,-2,-2,2020-11-12 23:21:41.486
-3,-9,-2,7,10,2,-2,-2,2020-11-12 23:21:41.491
-3,-9,-2,7,10,2,-2,-2,2020-11-12 23:21:41.498
1,-1,-2,-7,-12,-2,1,4,2020-11-12 23:21:41.504
-4,-2,-1,-1,-6,-1,-1,-4,2020-11-12 23:21:41.509
-4,-2,-1,-1,-6,-1,-1,-4,2020-11-12 23:21:41.516
-4,-2,-1,-1,-6,-1,-1,-4,2020-11-12 23:21:41.521
-1,-16,-1,-2,3,-1,1,5,2020-11-12 23:21:41.527
-1,-16,-1,-2,3,-1,1,5,2020-11-12 23:21:41.533
-4,-22,-24,-2,0,0,-2,0,2020-11-12 23:21:41.540
-4,-22,-24,-2,0,0,-2,0,2020-11-12 23:21:41.547
-1,-1,8,-2,-2,-2,-6,-7,2020-11-12 23:21:41.552
-1,-1,8,-2,-2,-2,-6,-7,2020-11-12 23:21:41.558
-1,6,8,2,2,-1,-3,0,2020-11-12 23:21:41.565
-4,-10,-3,1,4,1,1,1,2020-11-12 23:21:41.570
-4,-10,-3,1,4,1,1,1,2020-11-12 23:21:41.576
-4,-10,-3,1,4,1,1,1,2020-11-12 23:21:41.582
-2,-6,-4,-5,-6,-5,-1,-2,2020-11-12 23:21:41.587
-2,-6,-4,-5,-6,-5,-1,-2,2020-11-12 23:21:41.594
-8,-36,2,-2,3,0,0,1,2020-11-12 23:21:41.601
0,1,-9,-2,1,1,1,-2,2020-11-12 23:21:41.607
0,1,-9,-2,1,1,1,-2,2020-11-12 23:21:41.613
0,1,-9,-2,1,1,1,-2,2020-11-12 23:21:41.619
-1,1,-5,1,-2,-1,-2,0,2020-11-12 23:21:41.625
3,7,-3,0,0,-1,0,4,2020-11-12 23:21:41.631
3,7,-3,0,0,-1,0,4,2020-11-12 23:21:41.637
3,7,-3,0,0,-1,0,4,2020-11-12 23:21:41.642
1,-1,-11,-5,-3,-2,-7,1,2020-11-12 23:21:41.649
1,-1,-11,-5,-3,-2,-7,1,2020-11-12 23:21:41.655
-1,5,-2,4,9,2,3,2,2020-11-12 23:21:41.661
-1,-2,3,2,-3,2,2,0,2020-11-12 23:21:41.678
0,-3,0,2,2,-2,-2,-2,2020-11-12 23:21:41.685
-2,7,6,-5,-1,-1,1,0,2020-11-12 23:21:41.690
-2,7,6,-5,-1,-1,1,0,2020-11-12 23:21:41.697
-2,7,6,-5,-1,-1,1,0,2020-11-12 23:21:41.703
0,1,3,4,2,0,-1,-2,2020-11-12 23:21:41.709
0,1,3,4,2,0,-1,-2,2020-11-12 23:21:41.715
-3,-14,-7,-1,-12,-2,0,-1,2020-11-12 23:21:41.721
6,54,8,0,0,-1,0,0,2020-11-12 23:21:41.727
6,54,8,0,0,-1,0,0,2020-11-12 23:21:41.733
6,54,8,0,0,-1,0,0,2020-11-12 23:21:41.739
1,13,-5,5,8,0,0,-1,2020-11-12 23:21:41.745
-3,-17,-14,-6,-8,-3,-2,-2,2020-11-12 23:21:41.750
-3,-17,-14,-6,-8,-3,-2,-2,2020-11-12 23:21:41.756
-3,-17,-14,-6,-8,-3,-2,-2,2020-11-12 23:21:41.762
1,-6,4,-1,4,2,3,2,2020-11-12 23:21:41.768
1,-6,4,-1,4,2,3,2,2020-11-12 23:21:41.774
-5,-2,3,-4,-3,-1,-3,-3,2020-11-12 23:21:41.780
1,31,21,1,3,0,0,2,2020-11-12 23:21:41.786
1,31,21,1,3,0,0,2,2020-11-12 23:21:41.792
1,31,21,1,3,0,0,2,2020-11-12 23:21:41.798
5,17,-12,1,-3,0,0,-5,2020-11-12 23:21:41.804
-4,-23,-16,0,-4,0,0,-1,2020-11-12 23:21:41.810
-4,-23,-16,0,-4,0,0,-1,2020-11-12 23:21:41.816
-4,-23,-16,0,-4,0,0,-1,2020-11-12 23:21:41.821
2,-7,2,3,2,1,2,-1,2020-11-12 23:21:41.827
2,-7,2,3,2,1,2,-1,2020-11-12 23:21:41.834
-7,-27,6,-2,-5,2,0,-1,2020-11-12 23:21:41.840
0,-3,-2,0,-3,0,2,6,2020-11-12 23:21:41.847
0,-3,-2,0,-3,0,2,6,2020-11-12 23:21:41.852
0,-3,-2,0,-3,0,2,6,2020-11-12 23:21:41.858
1,19,5,-3,2,-1,-2,1,2020-11-12 23:21:41.865
-10,-20,-9,-1,4,-1,-5,-9,2020-11-12 23:21:41.870
-10,-20,-9,-1,4,-1,-5,-9,2020-11-12 23:21:41.876
1,-3,0,1,2,0,-2,2,2020-11-12 23:21:41.883
1,-3,0,1,2,0,-2,2,2020-11-12 23:21:41.889
-7,-8,-2,2,7,1,-2,-6,2020-11-12 23:21:41.895
5,6,2,-1,-6,-3,6,6,2020-11-12 23:21:41.901
-1,-3,9,-2,-4,-1,1,0,2020-11-12 23:21:41.907
-1,-3,9,-2,-4,-1,1,0,2020-11-12 23:21:41.913
-1,-3,9,-2,-4,-1,1,0,2020-11-12 23:21:41.919
-3,-4,-2,2,3,1,-1,-2,2020-11-12 23:21:41.925
0,-9,-1,1,-4,0,2,-1,2020-11-12 23:21:41.931
0,-9,-1,1,-4,0,2,-1,2020-11-12 23:21:41.937
-4,-10,-4,-1,8,-1,0,-3,2020-11-12 23:21:41.943
-4,-10,-4,-1,8,-1,0,-3,2020-11-12 23:21:41.949
-1,2,4,3,7,2,1,1,2020-11-12 23:21:41.955
-1,2,4,3,7,2,1,1,2020-11-12 23:21:41.961
6,20,2,-3,-8,-3,-2,2,2020-11-12 23:21:41.967
6,20,2,-3,-8,-3,-2,2,2020-11-12 23:21:41.973
6,20,2,-3,-8,-3,-2,2,2020-11-12 23:21:41.979
-5,-8,-12,-4,-3,1,-9,-8,2020-11-12 23:21:41.985
-2,5,1,1,-3,-3,-4,-3,2020-11-12 23:21:41.991
-2,5,1,1,-3,-3,-4,-3,2020-11-12 23:21:41.998
-1,-2,-4,1,2,1,-1,0,2020-11-12 23:21:42.004
-5,-15,-6,2,-2,2,-4,-4,2020-11-12 23:21:42.009
-5,-15,-6,2,-2,2,-4,-4,2020-11-12 23:21:42.016
-5,-15,-6,2,-2,2,-4,-4,2020-11-12 23:21:42.022
-1,-5,-3,-2,-4,-1,2,2,2020-11-12 23:21:42.028
-1,-5,-3,-2,-4,-1,2,2,2020-11-12 23:21:42.035
-1,-5,-3,-2,-4,-1,2,2,2020-11-12 23:21:42.040
0,-1,2,2,4,1,1,1,2020-11-12 23:21:42.046
-1,2,-3,-4,0,0,1,1,2020-11-12 23:21:42.052
-1,2,-3,-4,0,0,1,1,2020-11-12 23:21:42.058
3,9,6,0,1,0,0,2,2020-11-12 23:21:42.065
3,-3,-4,-5,-5,-4,-1,9,2020-11-12 23:21:42.071
3,-3,-4,-5,-5,-4,-1,9,2020-11-12 23:21:42.077
3,-3,-4,-5,-5,-4,-1,9,2020-11-12 23:21:42.083
3,-9,-7,-1,5,1,1,2,2020-11-12 23:21:42.089
3,-9,-7,-1,5,1,1,2,2020-11-12 23:21:42.095
3,-9,-7,-1,5,1,1,2,2020-11-12 23:21:42.102
2,-2,-2,-1,9,-2,-2,1,2020-11-12 23:21:42.108
2,-2,-2,-1,9,-2,-2,1,2020-11-12 23:21:42.114
2,-2,-2,-1,9,-2,-2,1,2020-11-12 23:21:42.120
2,2,4,-4,1,-1,1,1,2020-11-12 23:21:42.125
-4,4,-12,-5,0,-2,-2,-6,2020-11-12 23:21:42.131
-4,4,-12,-5,0,-2,-2,-6,2020-11-12 23:21:42.137
-4,4,-12,-5,0,-2,-2,-6,2020-11-12 23:21:42.142
2,9,14,2,-1,0,-3,-2,2020-11-12 23:21:42.149
2,9,14,2,-1,0,-3,-2,2020-11-12 23:21:42.155
-2,-1,0,1,-4,2,7,8,2020-11-12 23:21:42.160
-1,-4,0,-3,-4,-1,-1,-4,2020-11-12 23:21:42.167
-1,-4,0,-3,-4,-1,-1,-4,2020-11-12 23:21:42.173
-1,-4,0,-3,-4,-1,-1,-4,2020-11-12 23:21:42.179
2,3,5,0,1,-1,-3,-3,2020-11-12 23:21:42.185
8,2,0,2,5,1,4,6,2020-11-12 23:21:42.190
8,2,0,2,5,1,4,6,2020-11-12 23:21:42.196
8,2,0,2,5,1,4,6,2020-11-12 23:21:42.202
-2,-3,2,-1,-3,-3,-7,-6,2020-11-12 23:21:42.208
-2,-3,2,-1,-3,-3,-7,-6,2020-11-12 23:21:42.215
2,3,-7,-2,2,-1,0,1,2020-11-12 23:21:42.221
-4,-9,-8,5,3,0,-2,-4,2020-11-12 23:21:42.227
-4,-9,-8,5,3,0,-2,-4,2020-11-12 23:21:42.234
-4,-9,-8,5,3,0,-2,-4,2020-11-12 23:21:42.239
-4,6,-1,-4,-12,-2,-3,-4,2020-11-12 23:21:42.246
-7,-9,-5,-1,-4,-1,-2,-3,2020-11-12 23:21:42.252
-7,-9,-5,-1,-4,-1,-2,-3,2020-11-12 23:21:42.258
-7,-9,-5,-1,-4,-1,-2,-3,2020-11-12 23:21:42.264
-1,5,2,4,2,-1,-2,-2,2020-11-12 23:21:42.269
-1,5,2,4,2,-1,-2,-2,2020-11-12 23:21:42.275
-2,-10,-4,-6,-23,-5,-2,-3,2020-11-12 23:21:42.282
6,0,2,-1,-1,0,4,7,2020-11-12 23:21:42.288
6,0,2,-1,-1,0,4,7,2020-11-12 23:21:42.294
6,0,2,-1,-1,0,4,7,2020-11-12 23:21:42.299
1,10,2,3,3,0,1,-2,2020-11-12 23:21:42.305
1,0,1,-1,-2,1,1,-1,2020-11-12 23:21:42.311
1,0,1,-1,-2,1,1,-1,2020-11-12 23:21:42.318
1,0,1,-1,-2,1,1,-1,2020-11-12 23:21:42.324
-4,-10,-2,-3,0,2,1,1,2020-11-12 23:21:42.330
-4,-10,-2,-3,0,2,1,1,2020-11-12 23:21:42.336
0,-9,4,4,5,2,-4,-2,2020-11-12 23:21:42.342
-1,3,-2,2,3,-3,-1,-2,2020-11-12 23:21:42.350
-1,3,-2,2,3,-3,-1,-2,2020-11-12 23:21:42.357
-5,-4,1,-6,-23,-4,-5,-6,2020-11-12 23:21:42.374
-6,0,2,-1,0,0,-1,-3,2020-11-12 23:21:42.381
-4,-9,0,0,-1,-1,-6,-8,2020-11-12 23:21:42.387
-4,-9,0,0,-1,-1,-6,-8,2020-11-12 23:21:42.392
-4,-9,0,0,-1,-1,-6,-8,2020-11-12 23:21:42.399
3,-15,2,0,-1,2,0,0,2020-11-12 23:21:42.405
0,5,7,-1,-3,-2,2,4,2020-11-12 23:21:42.411
0,5,7,-1,-3,-2,2,4,2020-11-12 23:21:42.418
-2,-12,0,0,6,2,1,-1,2020-11-12 23:21:42.423
-2,-12,0,0,6,2,1,-1,2020-11-12 23:21:42.429
3,3,-11,-3,-4,-2,1,-1,2020-11-12 23:21:42.436
3,3,-11,-3,-4,-2,1,-1,2020-11-12 23:21:42.441
2,0,13,-1,0,1,0,2,2020-11-12 23:21:42.449
2,0,13,-1,0,1,0,2,2020-11-12 23:21:42.455
0,-7,-6,-3,1,0,-2,1,2020-11-12 23:21:42.461
6,22,13,1,-3,-2,-1,0,2020-11-12 23:21:42.468
-1,-7,-10,0,-4,-3,0,-1,2020-11-12 23:21:42.473
-1,-7,-10,0,-4,-3,0,-1,2020-11-12 23:21:42.479
-5,-4,5,2,10,1,-3,-1,2020-11-12 23:21:42.485
3,12,-2,-4,-1,0,2,2,2020-11-12 23:21:42.490
3,12,-2,-4,-1,0,2,2,2020-11-12 23:21:42.496
3,12,-2,-4,-1,0,2,2,2020-11-12 23:21:42.502
-7,-3,-2,-2,-2,-2,0,-3,2020-11-12 23:21:42.507
-7,-3,-2,-2,-2,-2,0,-3,2020-11-12 23:21:42.514
-7,-3,-2,-2,-2,-2,0,-3,2020-11-12 23:21:42.519
-1,-18,-2,2,-5,0,1,1,2020-11-12 23:21:42.525
2,-12,-3,1,2,0,-2,-1,2020-11-12 23:21:42.531
2,-12,-3,1,2,0,-2,-1,2020-11-12 23:21:42.538
2,15,3,-3,-1,0,0,-2,2020-11-12 23:21:42.543
3,7,4,0,1,-2,-3,-1,2020-11-12 23:21:42.550
3,7,4,0,1,-2,-3,-1,2020-11-12 23:21:42.556
3,7,4,0,1,-2,-3,-1,2020-11-12 23:21:42.561
-3,4,2,2,2,1,-2,-2,2020-11-12 23:21:42.567
-3,4,2,2,2,1,-2,-2,2020-11-12 23:21:42.573
-3,4,2,2,2,1,-2,-2,2020-11-12 23:21:42.579
3,13,5,2,0,1,0,2,2020-11-12 23:21:42.586
-2,-8,-6,-2,-6,-3,1,0,2020-11-12 23:21:42.591
-2,-8,-6,-2,-6,-3,1,0,2020-11-12 23:21:42.598
0,0,-8,3,-2,-2,-5,-5,2020-11-12 23:21:42.603
0,25,3,2,6,3,-2,-2,2020-11-12 23:21:42.609
0,25,3,2,6,3,-2,-2,2020-11-12 23:21:42.615
0,25,3,2,6,3,-2,-2,2020-11-12 23:21:42.621
-1,-7,-1,0,-9,0,1,1,2020-11-12 23:21:42.627
-1,-7,-1,0,-9,0,1,1,2020-11-12 23:21:42.633
-1,-7,-1,0,-9,0,1,1,2020-11-12 23:21:42.639
-1,-7,-1,0,-9,0,1,1,2020-11-12 23:21:42.645
1,-13,-9,1,6,0,1,2,2020-11-12 23:21:42.651
-2,-4,-3,-5,-8,-1,2,2,2020-11-12 23:21:42.657
-3,-6,-9,-1,-2,1,-2,-3,2020-11-12 23:21:42.664
3,8,1,-1,3,-2,-3,-2,2020-11-12 23:21:42.669
3,8,1,-1,3,-2,-3,-2,2020-11-12 23:21:42.675
3,8,1,-1,3,-2,-3,-2,2020-11-12 23:21:42.682
-5,-6,-3,-4,-2,-2,-3,-4,2020-11-12 23:21:42.688
-5,-6,-3,-4,-2,-2,-3,-4,2020-11-12 23:21:42.694
-5,-6,-3,-4,-2,-2,-3,-4,2020-11-12 23:21:42.700
-5,-6,-3,-4,-2,-2,-3,-4,2020-11-12 23:21:42.706
1,2,0,-1,1,-1,-1,-2,2020-11-12 23:21:42.712
1,2,0,-1,1,-1,-1,-2,2020-11-12 23:21:42.718
-1,-6,-7,0,-3,-1,-3,0,2020-11-12 23:21:42.724
-5,0,5,0,3,1,0,0,2020-11-12 23:21:42.731
-5,0,5,0,3,1,0,0,2020-11-12 23:21:42.737
-5,0,5,0,3,1,0,0,2020-11-12 23:21:42.744
2,0,4,1,5,0,0,1,2020-11-12 23:21:42.750
2,0,4,1,5,0,0,1,2020-11-12 23:21:42.757
2,0,4,1,5,0,0,1,2020-11-12 23:21:42.764
-2,-5,1,2,5,0,2,0,2020-11-12 23:21:42.770
-2,-5,1,2,5,0,2,0,2020-11-12 23:21:42.776
-2,-5,1,2,5,0,2,0,2020-11-12 23:21:42.784
-1,5,4,-1,-4,-2,-8,-3,2020-11-12 23:21:42.790
-1,5,4,-1,-4,-2,-8,-3,2020-11-12 23:21:42.796
-1,5,4,-1,-4,-2,-8,-3,2020-11-12 23:21:42.802
1,-9,2,0,7,0,-1,2,2020-11-12 23:21:42.808
-1,1,-2,0,-1,0,-2,-3,2020-11-12 23:21:42.815
-1,1,-2,0,-1,0,-2,-3,2020-11-12 23:21:42.822
-2,3,3,0,5,0,-1,-5,2020-11-12 23:21:42.829
3,7,-5,1,2,2,2,2,2020-11-12 23:21:42.835
3,7,-5,1,2,2,2,2,2020-11-12 23:21:42.841
0,-5,-11,-2,-7,-1,-2,0,2020-11-12 23:21:42.848
-4,-8,-4,-1,-2,-2,-1,-1,2020-11-12 23:21:42.853
-4,-8,-4,-1,-2,-2,-1,-1,2020-11-12 23:21:42.859
4,17,3,3,5,3,1,2,2020-11-12 23:21:42.865
4,17,3,3,5,3,1,2,2020-11-12 23:21:42.872
2,-8,3,-1,-2,1,-1,-2,2020-11-12 23:21:42.878
2,-8,3,-1,-2,1,-1,-2,2020-11-12 23:21:42.885
1,4,0,-1,2,0,2,6,2020-11-12 23:21:42.891
1,4,0,-1,2,0,2,6,2020-11-12 23:21:42.898
0,-7,0,0,1,0,-2,-4,2020-11-12 23:21:42.904
-4,-18,-13,-3,-11,-3,-2,-4,2020-11-12 23:21:42.911
-4,-18,-13,-3,-11,-3,-2,-4,2020-11-12 23:21:42.919
-7,-3,-15,-3,0,-3,-5,-4,2020-11-12 23:21:42.927
-1,-14,-11,-3,4,-1,1,-2,2020-11-12 23:21:42.935
-1,-14,-11,-3,4,-1,1,-2,2020-11-12 23:21:42.941
-1,-14,-11,-3,4,-1,1,-2,2020-11-12 23:21:42.948
-1,5,8,-3,0,-1,0,-1,2020-11-12 23:21:42.954
-1,5,8,-3,0,-1,0,-1,2020-11-12 23:21:42.960
7,4,6,-2,1,0,1,4,2020-11-12 23:21:42.967
-3,4,-1,2,0,0,-4,-5,2020-11-12 23:21:42.972
-3,4,-1,2,0,0,-4,-5,2020-11-12 23:21:42.979
1,5,5,2,1,-1,0,-1,2020-11-12 23:21:42.985
1,5,5,2,1,-1,0,-1,2020-11-12 23:21:42.991
0,14,5,-2,-5,-3,-2,-1,2020-11-12 23:21:42.997
0,14,5,-2,-5,-3,-2,-1,2020-11-12 23:21:43.003
3,1,2,-5,-9,0,2,4,2020-11-12 23:21:43.009
3,1,2,-5,-9,0,2,4,2020-11-12 23:21:43.015
3,1,2,-5,-9,0,2,4,2020-11-12 23:21:43.021
0,-5,0,-1,-1,-1,-1,-1,2020-11-12 23:21:43.027
-5,-6,-6,1,1,-1,-1,-1,2020-11-12 23:21:43.034
-5,-6,-6,1,1,-1,-1,-1,2020-11-12 23:21:43.039
1,5,9,-1,-2,-2,1,1,2020-11-12 23:21:43.045
1,5,9,-1,-2,-2,1,1,2020-11-12 23:21:43.051
-1,0,-1,0,9,0,0,0,2020-11-12 23:21:43.057
-1,0,-1,0,9,0,0,0,2020-11-12 23:21:43.063
2,-13,-2,1,-7,1,1,2,2020-11-12 23:21:43.069
2,-13,-2,1,-7,1,1,2,2020-11-12 23:21:43.075
2,-13,-2,1,-7,1,1,2,2020-11-12 23:21:43.081
-6,-17,-15,-3,1,0,2,-1,2020-11-12 23:21:43.098
3,13,17,0,0,-1,-2,1,2020-11-12 23:21:43.103
-4,-3,-1,-2,-8,-2,-2,2,2020-11-12 23:21:43.109
1,13,-4,-2,-5,-3,0,1,2020-11-12 23:21:43.115
1,13,-4,-2,-5,-3,0,1,2020-11-12 23:21:43.121
1,13,-4,-2,-5,-3,0,1,2020-11-12 23:21:43.127
-2,2,-1,1,4,-1,-3,-4,2020-11-12 23:21:43.133
-2,2,-1,1,4,-1,-3,-4,2020-11-12 23:21:43.139
-2,2,0,1,7,1,0,-3,2020-11-12 23:21:43.145
-2,-12,-6,0,1,-2,2,1,2020-11-12 23:21:43.151
-2,-12,-6,0,1,-2,2,1,2020-11-12 23:21:43.157
-2,-12,-6,0,1,-2,2,1,2020-11-12 23:21:43.163
-5,-20,-11,0,0,-2,-2,-5,2020-11-12 23:21:43.169
3,-13,-1,1,0,1,-3,-4,2020-11-12 23:21:43.175
3,-13,-1,1,0,1,-3,-4,2020-11-12 23:21:43.181
3,-13,-1,1,0,1,-3,-4,2020-11-12 23:21:43.187
-6,-9,-8,-3,4,-1,0,1,2020-11-12 23:21:43.193
-6,-9,-8,-3,4,-1,0,1,2020-11-12 23:21:43.201
3,9,7,-1,-12,-2,0,0,2020-11-12 23:21:43.207
-2,-9,-5,-1,3,0,-2,-4,2020-11-12 23:21:43.212
-2,-9,-5,-1,3,0,-2,-4,2020-11-12 23:21:43.219
2,15,6,-1,1,1,-2,-2,2020-11-12 23:21:43.225
-2,-9,-2,-3,-2,-1,0,-1,2020-11-12 23:21:43.231
10,8,-3,-1,-4,-2,2,6,2020-11-12 23:21:43.236
10,8,-3,-1,-4,-2,2,6,2020-11-12 23:21:43.242
0,21,-2,-2,-9,-1,-1,-2,2020-11-12 23:21:43.248
0,1,-5,-2,4,0,-3,-3,2020-11-12 23:21:43.254
0,1,-5,-2,4,0,-3,-3,2020-11-12 23:21:43.260
5,16,3,-1,-4,1,-2,1,2020-11-12 23:21:43.266
-1,3,0,0,5,1,3,3,2020-11-12 23:21:43.272
-1,3,0,0,5,1,3,3,2020-11-12 23:21:43.279
-1,3,0,0,5,1,3,3,2020-11-12 23:21:43.285
-1,3,0,0,5,1,3,3,2020-11-12 23:21:43.291
2,-7,7,0,-4,1,0,0,2020-11-12 23:21:43.297
2,-7,7,0,-4,1,0,0,2020-11-12 23:21:43.303
-2,-2,-2,-1,0,0,-3,-1,2020-11-12 23:21:43.309
-2,-2,-2,-1,0,0,-3,-1,2020-11-12 23:21:43.316
-2,-2,-2,-1,0,0,-3,-1,2020-11-12 23:21:43.322
-2,-2,-2,-1,0,0,-3,-1,2020-11-12 23:21:43.328
-2,0,-1,0,-7,-2,-1,-4,2020-11-12 23:21:43.334
-2,0,-1,0,-7,-2,-1,-4,2020-11-12 23:21:43.340
-8,-28,-6,1,3,-1,-1,-4,2020-11-12 23:21:43.346
-5,1,-3,-1,0,0,0,-1,2020-11-12 23:21:43.353
-5,1,-3,-1,0,0,0,-1,2020-11-12 23:21:43.359
-5,1,-3,-1,0,0,0,-1,2020-11-12 23:21:43.366
-5,-2,0,-2,-4,-2,-2,-2,2020-11-12 23:21:43.373
-5,-2,0,-2,-4,-2,-2,-2,2020-11-12 23:21:43.379
-1,9,-6,0,1,-1,1,3,2020-11-12 23:21:43.387
5,8,0,-1,6,0,3,5,2020-11-12 23:21:43.393
5,8,0,-1,6,0,3,5,2020-11-12 23:21:43.400
-1,-1,2,1,3,1,0,-1,2020-11-12 23:21:43.406
-3,3,6,2,1,0,-2,-4,2020-11-12 23:21:43.412
-3,-13,-8,-1,-4,-4,-1,-1,2020-11-12 23:21:43.419
-3,-13,-8,-1,-4,-4,-1,-1,2020-11-12 23:21:43.424
-5,2,2,1,2,-1,-3,-7,2020-11-12 23:21:43.430
-5,2,2,1,2,-1,-3,-7,2020-11-12 23:21:43.436
-5,2,2,1,2,-1,-3,-7,2020-11-12 23:21:43.441
-5,2,2,1,2,-1,-3,-7,2020-11-12 23:21:43.448
5,5,-7,2,1,0,-1,0,2020-11-12 23:21:43.455
5,5,-7,2,1,0,-1,0,2020-11-12 23:21:43.461
2,-7,-1,-1,-2,3,0,-1,2020-11-12 23:21:43.467
-2,-2,-8,0,-3,-2,-3,-1,2020-11-12 23:21:43.473
-2,-2,-8,0,-3,-2,-3,-1,2020-11-12 23:21:43.477
-2,-2,-8,0,-3,-2,-3,-1,2020-11-12 23:21:43.484
0,15,4,0,-5,0,0,1,2020-11-12 23:21:43.489
0,15,4,0,-5,0,0,1,2020-11-12 23:21:43.495
0,15,4,0,-5,0,0,1,2020-11-12 23:21:43.502
-1,-3,4,0,-3,-1,-2,-2,2020-11-12 23:21:43.508
-1,6,2,0,-1,0,1,1,2020-11-12 23:21:43.515
-1,6,2,0,-1,0,1,1,2020-11-12 23:21:43.520
-1,47,23,0,6,-2,-8,-6,2020-11-12 23:21:43.526
0,-4,3,-2,-3,-1,-1,-1,2020-11-12 23:21:43.532
0,-4,3,-2,-3,-1,-1,-1,2020-11-12 23:21:43.538
0,-4,3,-2,-3,-1,-1,-1,2020-11-12 23:21:43.544
5,9,6,-1,-6,-3,-3,1,2020-11-12 23:21:43.550
5,9,6,-1,-6,-3,-3,1,2020-11-12 23:21:43.556
5,9,6,-1,-6,-3,-3,1,2020-11-12 23:21:43.562
4,-10,3,5,8,1,2,1,2020-11-12 23:21:43.569
-1,-19,-5,-3,3,0,2,1,2020-11-12 23:21:43.574
-1,-19,-5,-3,3,0,2,1,2020-11-12 23:21:43.580
0,-15,-6,-2,-9,-2,0,0,2020-11-12 23:21:43.586
-3,4,-1,-1,2,1,-2,-3,2020-11-12 23:21:43.592
-3,4,-1,-1,2,1,-2,-3,2020-11-12 23:21:43.598
-3,4,-1,-1,2,1,-2,-3,2020-11-12 23:21:43.604
-1,0,2,-2,-2,-1,-1,0,2020-11-12 23:21:43.610
-1,0,2,-2,-2,-1,-1,0,2020-11-12 23:21:43.616
-1,0,2,-2,-2,-1,-1,0,2020-11-12 23:21:43.622
-1,-15,-5,2,-1,-1,-1,-2,2020-11-12 23:21:43.628
0,1,-2,2,7,1,-1,-2,2020-11-12 23:21:43.634
0,1,-2,2,7,1,-1,-2,2020-11-12 23:21:43.640
-3,-22,-9,-2,-1,0,-2,0,2020-11-12 23:21:43.646
-3,-8,11,-3,-4,-1,-1,-4,2020-11-12 23:21:43.652
-3,-8,11,-3,-4,-1,-1,-4,2020-11-12 23:21:43.658
-3,-8,11,-3,-4,-1,-1,-4,2020-11-12 23:21:43.665
-2,-1,0,2,3,-4,-3,-1,2020-11-12 23:21:43.670
-2,-1,0,2,3,-4,-3,-1,2020-11-12 23:21:43.676
-2,-1,0,2,3,-4,-3,-1,2020-11-12 23:21:43.682
-2,-20,-2,1,3,0,2,1,2020-11-12 23:21:43.688
5,7,-2,-4,-12,-2,1,1,2020-11-12 23:21:43.694
5,7,-2,-4,-12,-2,1,1,2020-11-12 23:21:43.701
5,0,-3,-1,-2,-3,1,1,2020-11-12 23:21:43.707
1,3,-6,1,6,3,1,0,2020-11-12 23:21:43.712
1,3,-6,1,6,3,1,0,2020-11-12 23:21:43.719
1,3,-6,1,6,3,1,0,2020-11-12 23:21:43.725
-3,-5,-5,-6,-9,-1,-1,-1,2020-11-12 23:21:43.732
-3,-5,-5,-6,-9,-1,-1,-1,2020-11-12 23:21:43.737
1,2,-7,0,2,1,-1,0,2020-11-12 23:21:43.743
1,2,-7,0,2,1,-1,0,2020-11-12 23:21:43.750
1,-3,4,1,1,2,0,-2,2020-11-12 23:21:43.756
1,-3,4,1,1,2,0,-2,2020-11-12 23:21:43.762
-3,8,5,0,3,-1,-2,-3,2020-11-12 23:21:43.768
-1,-8,-16,1,4,1,-2,-2,2020-11-12 23:21:43.774
-1,-8,-16,1,4,1,-2,-2,2020-11-12 23:21:43.780
-1,-8,-16,1,4,1,-2,-2,2020-11-12 23:21:43.786
1,2,-1,-1,3,-1,0,1,2020-11-12 23:21:43.792
-2,0,2,3,1,-3,-3,-2,2020-11-12 23:21:43.799
6,17,5,-2,-8,1,3,5,2020-11-12 23:21:43.816
3,10,13,1,-7,-3,0,-1,2020-11-12 23:21:43.822
1,-2,1,1,3,1,1,-1,2020-11-12 23:21:43.828
-2,2,11,1,-5,-1,1,1,2020-11-12 23:21:43.835
-2,2,11,1,-5,-1,1,1,2020-11-12 23:21:43.841
-2,2,11,1,-5,-1,1,1,2020-11-12 23:21:43.848
-4,-15,0,-1,0,-2,-2,-3,2020-11-12 23:21:43.854
-2,-14,-7,0,2,0,1,-1,2020-11-12 23:21:43.859
-2,-14,-7,0,2,0,1,-1,2020-11-12 23:21:43.866
-7,6,3,-1,5,1,-2,-4,2020-11-12 23:21:43.872
-7,6,3,-1,5,1,-2,-4,2020-11-12 23:21:43.878
-7,6,3,-1,5,1,-2,-4,2020-11-12 23:21:43.884
1,8,3,2,0,0,1,1,2020-11-12 23:21:43.890
1,6,-4,-5,-9,-2,0,0,2020-11-12 23:21:43.896
1,6,-4,-5,-9,-2,0,0,2020-11-12 23:21:43.903
-2,-15,4,0,2,-2,-3,-4,2020-11-12 23:21:43.909
0,-2,-1,-5,-4,-1,0,1,2020-11-12 23:21:43.915
0,-2,-1,-5,-4,-1,0,1,2020-11-12 23:21:43.920
0,-2,-1,-5,-4,-1,0,1,2020-11-12 23:21:43.926
-4,-6,-4,0,3,-1,-5,-7,2020-11-12 23:21:43.932
-4,-6,-4,0,3,-1,-5,-7,2020-11-12 23:21:43.938
-4,-6,-4,0,3,-1,-5,-7,2020-11-12 23:21:43.944
2,8,2,-1,-6,-1,2,3,2020-11-12 23:21:43.951
1,-3,-2,-1,0,-1,-2,-1,2020-11-12 23:21:43.957
1,-3,-2,-1,0,-1,-2,-1,2020-11-12 23:21:43.964
-2,-10,-15,1,2,0,-1,0,2020-11-12 23:21:43.970
9,21,4,-2,-7,-2,0,2,2020-11-12 23:21:43.976
9,21,4,-2,-7,-2,0,2,2020-11-12 23:21:43.984
9,21,4,-2,-7,-2,0,2,2020-11-12 23:21:43.989
-9,-5,4,2,9,-1,-2,-2,2020-11-12 23:21:43.995
-9,-5,4,2,9,-1,-2,-2,2020-11-12 23:21:44.002
-1,7,4,1,-1,1,-2,-3,2020-11-12 23:21:44.008
-1,-9,-6,-2,-4,0,0,1,2020-11-12 23:21:44.014
-1,-9,-6,-2,-4,0,0,1,2020-11-12 23:21:44.020
-1,-9,-6,-2,-4,0,0,1,2020-11-12 23:21:44.026
-2,-13,-3,0,3,-1,-4,-2,2020-11-12 23:21:44.032
-2,-13,-3,0,3,-1,-4,-2,2020-11-12 23:21:44.038
-2,-3,-1,2,2,1,0,3,2020-11-12 23:21:44.044
-2,-3,-1,2,2,1,0,3,2020-11-12 23:21:44.050
1,0,-1,-2,3,-1,1,0,2020-11-12 23:21:44.056
1,0,-1,-2,3,-1,1,0,2020-11-12 23:21:44.062
-2,2,1,-1,5,-2,-1,-3,2020-11-12 23:21:44.068
-6,-3,-10,0,-2,-1,1,-4,2020-11-12 23:21:44.075
-6,-3,-10,0,-2,-1,1,-4,2020-11-12 23:21:44.080
-6,-3,-10,0,-2,-1,1,-4,2020-11-12 23:21:44.087
-1,8,3,0,-5,1,0,3,2020-11-12 23:21:44.093
1,0,-3,-2,-6,-1,1,-1,2020-11-12 23:21:44.099
1,0,-3,-2,-6,-1,1,-1,2020-11-12 23:21:44.105
0,-14,-5,3,4,0,0,2,2020-11-12 23:21:44.111
0,-14,-5,3,4,0,0,2,2020-11-12 23:21:44.118
0,-14,-5,3,4,0,0,2,2020-11-12 23:21:44.124
1,0,6,-7,-4,-3,0,1,2020-11-12 23:21:44.130
1,2,0,-1,2,1,-1,2,2020-11-12 23:21:44.137
1,2,0,-1,2,1,-1,2,2020-11-12 23:21:44.142
1,-6,-1,2,4,-1,-1,0,2020-11-12 23:21:44.149
2,1,-4,-4,-4,0,-2,0,2020-11-12 23:21:44.155
2,1,-4,-4,-4,0,-2,0,2020-11-12 23:21:44.160
2,1,-4,-4,-4,0,-2,0,2020-11-12 23:21:44.167
-3,-9,0,0,-2,-3,-2,-2,2020-11-12 23:21:44.173
-3,-9,0,0,-2,-3,-2,-2,2020-11-12 23:21:44.179
-3,-9,0,0,-2,-3,-2,-2,2020-11-12 23:21:44.185
-2,3,2,1,-2,0,-2,-4,2020-11-12 23:21:44.191
0,-2,3,-2,-5,1,0,-3,2020-11-12 23:21:44.197
0,-2,3,-2,-5,1,0,-3,2020-11-12 23:21:44.204
-3,-8,-11,-2,0,-1,0,2,2020-11-12 23:21:44.210
5,7,0,1,6,1,3,3,2020-11-12 23:21:44.216
5,7,0,1,6,1,3,3,2020-11-12 23:21:44.222
5,7,0,1,6,1,3,3,2020-11-12 23:21:44.227
-6,-9,-6,-2,-2,-2,-3,-5,2020-11-12 23:21:44.234
-6,-9,-6,-2,-2,-2,-3,-5,2020-11-12 23:21:44.239
1,-13,-1,0,0,0,1,4,2020-11-12 23:21:44.245
-2,-1,0,1,1,2,0,1,2020-11-12 23:21:44.252
-2,-1,0,1,1,2,0,1,2020-11-12 23:21:44.258
-2,-1,0,1,1,2,0,1,2020-11-12 23:21:44.264
1,4,2,-1,-1,-4,-2,-1,2020-11-12 23:21:44.271
-3,-3,1,1,-1,0,-1,-3,2020-11-12 23:21:44.277
-3,-3,1,1,-1,0,-1,-3,2020-11-12 23:21:44.283
0,0,-3,-4,-3,1,1,3,2020-11-12 23:21:44.290
0,0,-3,-4,-3,1,1,3,2020-11-12 23:21:44.296
4,7,6,1,0,1,-1,1,2020-11-12 23:21:44.302
-3,-3,-3,-3,0,-1,-1,-3,2020-11-12 23:21:44.308
-3,-5,-14,-4,2,-2,-2,-2,2020-11-12 23:21:44.314
-3,-5,-14,-4,2,-2,-2,-2,2020-11-12 23:21:44.320
-3,-5,-14,-4,2,-2,-2,-2,2020-11-12 23:21:44.326
10,-2,4,0,-9,-2,0,5,2020-11-12 23:21:44.331
0,8,2,2,-1,0,-1,-2,2020-11-12 23:21:44.338
0,8,2,2,-1,0,-1,-2,2020-11-12 23:21:44.343
0,8,2,2,-1,0,-1,-2,2020-11-12 23:21:44.350
1,4,2,-1,0,-2,-3,1,2020-11-12 23:21:44.356
1,4,2,-1,0,-2,-3,1,2020-11-12 23:21:44.362
-4,15,15,2,4,1,0,-3,2020-11-12 23:21:44.369
-3,-2,1,-3,-11,-3,4,6,2020-11-12 23:21:44.376
-3,-2,1,-3,-11,-3,4,6,2020-11-12 23:21:44.382
0,-2,-18,-1,1,0,-1,-1,2020-11-12 23:21:44.388
0,-2,-18,-1,1,0,-1,-1,2020-11-12 23:21:44.394
4,10,0,-1,7,1,-1,-1,2020-11-12 23:21:44.401
4,10,0,-1,7,1,-1,-1,2020-11-12 23:21:44.407
-2,-14,5,-1,2,0,0,-2,2020-11-12 23:21:44.412
-2,-14,5,-1,2,0,0,-2,2020-11-12 23:21:44.419
-2,-14,5,-1,2,0,0,-2,2020-11-12 23:21:44.425
0,-3,0,-1,0,-1,-3,-2,2020-11-12 23:21:44.431
-3,4,-1,-1,-1,-2,-3,-3,2020-11-12 23:21:44.437
-3,4,-1,-1,-1,-2,-3,-3,2020-11-12 23:21:44.443
2,2,7,-1,-2,0,1,1,2020-11-12 23:21:44.450
0,-2,-2,1,-3,0,0,1,2020-11-12 23:21:44.456
0,-2,-2,1,-3,0,0,1,2020-11-12 23:21:44.461
0,-2,-2,1,-3,0,0,1,2020-11-12 23:21:44.468
-3,-7,6,2,5,-1,-1,-5,2020-11-12 23:21:44.475
-3,-7,6,2,5,-1,-1,-5,2020-11-12 23:21:44.481
0,2,2,2,0,0,1,1,2020-11-12 23:21:44.487
1,-3,6,-2,-13,-2,1,1,2020-11-12 23:21:44.492
1,-3,6,-2,-13,-2,1,1,2020-11-12 23:21:44.499
1,-3,6,-2,-13,-2,1,1,2020-11-12 23:21:44.505
-2,2,1,0,3,0,0,0,2020-11-12 23:21:44.511
1,1,-5,-1,1,-2,-2,0,2020-11-12 23:21:44.518
1,1,-5,-1,1,-2,-2,0,2020-11-12 23:21:44.524
0,-5,-5,-2,-1,0,0,1,2020-11-12 23:21:44.530
3,4,-3,0,-4,-3,-1,1,2020-11-12 23:21:44.536
3,4,-3,0,-4,-3,-1,1,2020-11-12 23:21:44.553
1,14,-2,0,2,1,0,-2,2020-11-12 23:21:44.559
1,14,-2,0,2,1,0,-2,2020-11-12 23:21:44.566
0,3,5,-1,-8,-2,-2,-1,2020-11-12 23:21:44.572
0,4,-1,2,6,2,0,-1,2020-11-12 23:21:44.577
0,4,-1,2,6,2,0,-1,2020-11-12 23:21:44.584
-1,-2,-26,-7,-6,-1,-2,-3,2020-11-12 23:21:44.590
-1,-8,1,-3,4,-1,-4,-1,2020-11-12 23:21:44.596
-1,-8,1,-3,4,-1,-4,-1,2020-11-12 23:21:44.602
-1,-3,9,1,5,-2,-1,-1,2020-11-12 23:21:44.609
-3,-10,-7,-2,-2,2,2,-1,2020-11-12 23:21:44.616
-3,-10,-7,-2,-2,2,2,-1,2020-11-12 23:21:44.622
-2,-1,4,1,0,-2,-1,-1,2020-11-12 23:21:44.628
-2,-1,4,1,0,-2,-1,-1,2020-11-12 23:21:44.634
-4,-11,0,2,1,2,-1,-2,2020-11-12 23:21:44.640
-4,-11,0,2,1,2,-1,-2,2020-11-12 23:21:44.646
10,-1,3,-1,1,1,2,7,2020-11-12 23:21:44.653
10,-1,3,-1,1,1,2,7,2020-11-12 23:21:44.658
10,-1,3,-1,1,1,2,7,2020-11-12 23:21:44.664
0,-4,3,0,2,-1,-1,0,2020-11-12 23:21:44.670
-4,2,-3,-2,-2,-1,0,-4,2020-11-12 23:21:44.676
-4,2,-3,-2,-2,-1,0,-4,2020-11-12 23:21:44.682
0,4,-3,-1,-2,-2,-2,-1,2020-11-12 23:21:44.688
0,4,-3,-1,-2,-2,-2,-1,2020-11-12 23:21:44.693
-4,-4,-6,1,0,-1,-1,-4,2020-11-12 23:21:44.700
-4,-4,-6,1,0,-1,-1,-4,2020-11-12 23:21:44.706
-5,-5,5,0,1,0,-2,-5,2020-11-12 23:21:44.712
1,1,-4,-1,4,0,-4,-1,2020-11-12 23:21:44.719
1,1,-4,-1,4,0,-4,-1,2020-11-12 23:21:44.725
3,20,1,-3,-3,-2,-2,-3,2020-11-12 23:21:44.731
-2,21,11,-2,-2,-1,0,-3,2020-11-12 23:21:44.738
-2,21,11,-2,-2,-1,0,-3,2020-11-12 23:21:44.745
-3,-7,0,-1,-1,0,0,0,2020-11-12 23:21:44.751
-4,-6,1,3,3,-2,-2,-2,2020-11-12 23:21:44.757
-4,-6,1,3,3,-2,-2,-2,2020-11-12 23:21:44.762
-4,-6,1,3,3,-2,-2,-2,2020-11-12 23:21:44.769
3,2,6,-2,-10,-4,0,0,2020-11-12 23:21:44.775
-2,3,0,-2,-1,1,0,0,2020-11-12 23:21:44.781
-3,-12,-3,-1,2,0,0,0,2020-11-12 23:21:44.788
6,10,-1,-2,-5,-3,1,3,2020-11-12 23:21:44.794
6,10,-1,-2,-5,-3,1,3,2020-11-12 23:21:44.800
6,10,-1,-2,-5,-3,1,3,2020-11-12 23:21:44.806
1,12,16,3,4,1,0,-1,2020-11-12 23:21:44.812
-7,4,-3,-4,0,-1,-4,-6,2020-11-12 23:21:44.819
-7,4,-3,-4,0,-1,-4,-6,2020-11-12 23:21:44.825
-7,4,-3,-4,0,-1,-4,-6,2020-11-12 23:21:44.830
-7,4,-3,-4,0,-1,-4,-6,2020-11-12 23:21:44.838
-4,-17,-38,-5,-8,-4,-2,-3,2020-11-12 23:21:44.843
-4,-17,-38,-5,-8,-4,-2,-3,2020-11-12 23:21:44.850
3,-9,1,-1,6,0,0,2,2020-11-12 23:21:44.856
3,-9,1,-1,6,0,0,2,2020-11-12 23:21:44.861
-2,9,0,0,1,-2,-1,-2,2020-11-12 23:21:44.868
-2,9,0,0,1,-2,-1,-2,2020-11-12 23:21:44.873
-1,-12,1,2,-6,-1,-1,-2,2020-11-12 23:21:44.879
-1,-12,1,2,-6,-1,-1,-2,2020-11-12 23:21:44.886
0,-2,4,-3,-4,-3,-5,-1,2020-11-12 23:21:44.892
-1,-9,-5,-1,3,1,1,1,2020-11-12 23:21:44.898
-1,-9,-5,-1,3,1,1,1,2020-11-12 23:21:44.905
-1,-9,-5,-1,3,1,1,1,2020-11-12 23:21:44.911
1,12,-2,-3,-5,0,0,1,2020-11-12 23:21:44.918
1,12,-2,-3,-5,0,0,1,2020-11-12 23:21:44.923
2,9,1,-3,-4,1,-2,-3,2020-11-12 23:21:44.929
-2,-10,6,-3,-10,-1,0,2,2020-11-12 23:21:44.936
-2,-10,6,-3,-10,-1,0,2,2020-11-12 23:21:44.941
-2,-10,6,-3,-10,-1,0,2,2020-11-12 23:21:44.948
-2,-4,-4,1,4,0,-3,-3,2020-11-12 23:21:44.955
-2,5,-1,-2,3,-1,-4,-3,2020-11-12 23:21:44.961
-2,5,-1,-2,3,-1,-4,-3,2020-11-12 23:21:44.968
0,-2,1,0,-1,-1,2,1,2020-11-12 23:21:44.973
0,-2,1,0,-1,-1,2,1,2020-11-12 23:21:44.979
0,-2,1,0,-1,-1,2,1,2020-11-12 23:21:44.985
1,-2,-1,3,5,1,0,1,2020-11-12 23:21:44.991
-1,-2,8,-1,-10,-2,1,-2,2020-11-12 23:21:44.997
-1,-2,8,-1,-10,-2,1,-2,2020-11-12 23:21:45.004
-1,-2,8,-1,-10,-2,1,-2,2020-11-12 23:21:45.009
7,8,1,2,8,1,-1,1,2020-11-12 23:21:45.015
1,-2,3,-4,-5,-1,-1,0,2020-11-12 23:21:45.021
1,-2,3,-4,-5,-1,-1,0,2020-11-12 23:21:45.027
-2,-2,-1,-2,4,-1,-2,-4,2020-11-12 23:21:45.034
-2,-2,-1,-2,4,-1,-2,-4,2020-11-12 23:21:45.039
-2,-2,-1,-2,4,-1,-2,-4,2020-11-12 23:21:45.046
-2,-13,-12,-3,-5,-5,-5,-1,2020-11-12 23:21:45.053
-2,-9,8,4,3,2,2,1,2020-11-12 23:21:45.059
-2,-9,8,4,3,2,2,1,2020-11-12 23:21:45.066
-6,-3,-6,-6,0,0,-3,-3,2020-11-12 23:21:45.071
1,2,-2,0,-8,0,-2,0,2020-11-12 23:21:45.077
1,2,-2,0,-8,0,-2,0,2020-11-12 23:21:45.084
1,2,-2,0,-8,0,-2,0,2020-11-12 23:21:45.090
-3,1,-2,1,8,1,1,-2,2020-11-12 23:21:45.096
-3,1,-2,1,8,1,1,-2,2020-11-12 23:21:45.102
-3,1,-2,1,8,1,1,-2,2020-11-12 23:21:45.108
-5,-7,-1,-2,-14,-3,-2,-3,2020-11-12 23:21:45.114
1,7,5,3,5,0,-2,-1,2020-11-12 23:21:45.120
1,7,5,3,5,0,-2,-1,2020-11-12 23:21:45.126
1,1,3,1,4,2,-3,-5,2020-11-12 23:21:45.132
-1,20,6,-2,-2,-3,-3,-1,2020-11-12 23:21:45.138
-1,20,6,-2,-2,-3,-3,-1,2020-11-12 23:21:45.144
-1,20,6,-2,-2,-3,-3,-1,2020-11-12 23:21:45.151
0,-6,1,-1,4,1,2,0,2020-11-12 23:21:45.157
0,-6,1,-1,4,1,2,0,2020-11-12 23:21:45.163
-3,5,0,2,4,-1,0,-2,2020-11-12 23:21:45.170
-2,-25,-21,-4,-3,-2,0,-2,2020-11-12 23:21:45.176
-2,-25,-21,-4,-3,-2,0,-2,2020-11-12 23:21:45.182
-2,-25,-21,-4,-3,-2,0,-2,2020-11-12 23:21:45.188
-2,-5,-10,-8,-13,-2,-1,2,2020-11-12 23:21:45.194
-2,-9,-4,2,-1,-1,-2,-1,2020-11-12 23:21:45.200
-2,-9,-4,2,-1,-1,-2,-1,2020-11-12 23:21:45.206
-2,-9,-4,2,-1,-1,-2,-1,2020-11-12 23:21:45.213
1,6,7,4,3,-1,-1,-1,2020-11-12 23:21:45.219
1,6,7,4,3,-1,-1,-1,2020-11-12 23:21:45.225
-2,-7,6,-4,-6,-4,-1,0,2020-11-12 23:21:45.231
6,11,0,0,-3,-1,5,11,2020-11-12 23:21:45.237
6,11,0,0,-3,-1,5,11,2020-11-12 23:21:45.243
6,11,0,0,-3,-1,5,11,2020-11-12 23:21:45.250
1,-2,0,2,3,-2,2,3,2020-11-12 23:21:45.257
-2,-2,2,2,4,-2,-1,-3,2020-11-12 23:21:45.262
-2,-2,2,2,4,-2,-1,-3,2020-11-12 23:21:45.275
-2,8,7,-1,-5,-3,-2,-3,2020-11-12 23:21:45.281
-2,8,7,-1,-5,-3,-2,-3,2020-11-12 23:21:45.289
-9,-23,-5,-4,-6,-1,-1,-5,2020-11-12 23:21:45.294
-9,-23,-5,-4,-6,-1,-1,-5,2020-11-12 23:21:45.312
-3,6,2,-2,2,0,-2,0,2020-11-12 23:21:45.319
-3,6,2,-2,2,0,-2,0,2020-11-12 23:21:45.325
-3,6,2,-2,2,0,-2,0,2020-11-12 23:21:45.330
1,20,13,0,-3,-1,-2,-3,2020-11-12 23:21:45.336
1,20,13,0,-3,-1,-2,-3,2020-11-12 23:21:45.342
1,20,13,0,-3,-1,-2,-3,2020-11-12 23:21:45.347
-1,-4,-4,-3,0,0,-3,0,2020-11-12 23:21:45.355
0,-3,-5,-3,2,-1,-4,-2,2020-11-12 23:21:45.360
0,-3,-5,-3,2,-1,-4,-2,2020-11-12 23:21:45.367
2,12,7,1,1,0,-1,2,2020-11-12 23:21:45.373
2,3,0,-4,-5,-1,-2,-1,2020-11-12 23:21:45.379
2,3,0,-4,-5,-1,-2,-1,2020-11-12 23:21:45.386
2,3,0,-4,-5,-1,-2,-1,2020-11-12 23:21:45.392
0,0,0,2,2,1,1,1,2020-11-12 23:21:45.400
0,0,0,2,2,1,1,1,2020-11-12 23:21:45.406
1,-4,-10,-2,-4,-2,0,1,2020-11-12 23:21:45.411
-6,-24,-34,-14,4,-2,-3,-5,2020-11-12 23:21:45.419
-6,-24,-34,-14,4,-2,-3,-5,2020-11-12 23:21:45.425
-5,3,2,4,-8,-2,-5,-7,2020-11-12 23:21:45.430
-5,3,2,4,-8,-2,-5,-7,2020-11-12 23:21:45.437
-1,-10,11,2,5,1,2,2,2020-11-12 23:21:45.443
-1,-10,11,2,5,1,2,2,2020-11-12 23:21:45.451
1,5,-12,-4,0,-2,0,0,2020-11-12 23:21:45.457
1,5,-12,-4,0,-2,0,0,2020-11-12 23:21:45.462
0,2,4,-1,3,0,0,-1,2020-11-12 23:21:45.469
2,7,7,5,-6,1,3,2,2020-11-12 23:21:45.476
2,7,7,5,-6,1,3,2,2020-11-12 23:21:45.482
2,7,7,5,-6,1,3,2,2020-11-12 23:21:45.489
1,0,0,0,4,1,1,-1,2020-11-12 23:21:45.496
0,5,-1,3,-3,-2,-2,-2,2020-11-12 23:21:45.502
0,5,-1,3,-3,-2,-2,-2,2020-11-12 23:21:45.509
1,10,10,4,-6,1,3,5,2020-11-12 23:21:45.515
1,10,10,4,-6,1,3,5,2020-11-12 23:21:45.521
1,10,10,4,-6,1,3,5,2020-11-12 23:21:45.527
-2,-11,-10,6,-7,-3,-3,-3,2020-11-12 23:21:45.533
-5,-18,-15,-4,4,-1,-3,-6,2020-11-12 23:21:45.540
-5,-18,-15,-4,4,-1,-3,-6,2020-11-12 23:21:45.546
0,4,-10,-6,2,-1,-1,-2,2020-11-12 23:21:45.553
6,19,14,15,-7,-1,-1,1,2020-11-12 23:21:45.559
6,19,14,15,-7,-1,-1,1,2020-11-12 23:21:45.565
6,19,14,15,-7,-1,-1,1,2020-11-12 23:21:45.572
-2,-6,-5,-8,0,-3,-3,-1,2020-11-12 23:21:45.577
-2,-6,-5,-8,0,-3,-3,-1,2020-11-12 23:21:45.584
2,31,28,-1,4,0,0,1,2020-11-12 23:21:45.590
2,1,8,-6,-5,-2,-1,1,2020-11-12 23:21:45.596
2,1,8,-6,-5,-2,-1,1,2020-11-12 23:21:45.603
2,1,8,-6,-5,-2,-1,1,2020-11-12 23:21:45.609
-3,-9,-10,-1,2,-1,-2,-1,2020-11-12 23:21:45.616
-1,21,8,3,2,0,-4,-5,2020-11-12 23:21:45.623
-1,21,8,3,2,0,-4,-5,2020-11-12 23:21:45.629
3,-8,-2,-1,-5,-1,1,1,2020-11-12 23:21:45.635
3,-8,-2,-1,-5,-1,1,1,2020-11-12 23:21:45.641
3,-8,-2,-1,-5,-1,1,1,2020-11-12 23:21:45.647
-5,-6,-2,-1,1,0,-1,-3,2020-11-12 23:21:45.654
1,5,5,-4,6,3,1,0,2020-11-12 23:21:45.660
1,5,5,-4,6,3,1,0,2020-11-12 23:21:45.667
2,0,-6,-9,-7,-1,0,0,2020-11-12 23:21:45.673
-2,-16,-4,3,0,0,1,2,2020-11-12 23:21:45.679
-2,-16,-4,3,0,0,1,2,2020-11-12 23:21:45.686
1,5,8,10,1,2,0,2,2020-11-12 23:21:45.692
1,5,8,10,1,2,0,2,2020-11-12 23:21:45.698
-6,-13,-18,-3,-10,-3,-4,-6,2020-11-12 23:21:45.705
-3,-3,-5,-5,-1,-1,-3,-6,2020-11-12 23:21:45.711
1,19,13,1,4,0,1,0,2020-11-12 23:21:45.718
1,19,13,1,4,0,1,0,2020-11-12 23:21:45.724
0,-1,-2,-3,-11,-2,-1,-1,2020-11-12 23:21:45.729
0,-1,-2,-3,-11,-2,-1,-1,2020-11-12 23:21:45.736
2,0,-3,-3,1,-1,1,3,2020-11-12 23:21:45.742
2,0,-3,-3,1,-1,1,3,2020-11-12 23:21:45.748
-3,-2,-3,11,4,-1,1,-1,2020-11-12 23:21:45.755
0,5,10,6,2,-1,-1,-4,2020-11-12 23:21:45.760
0,5,10,6,2,-1,-1,-4,2020-11-12 23:21:45.767
0,5,10,6,2,-1,-1,-4,2020-11-12 23:21:45.774
0,-4,-6,-5,-6,0,-1,1,2020-11-12 23:21:45.780
0,-4,-6,-5,-6,0,-1,1,2020-11-12 23:21:45.787
-3,-2,-1,4,-2,1,-1,-2,2020-11-12 23:21:45.792
4,-2,0,-3,1,1,-1,-2,2020-11-12 23:21:45.799
4,-2,0,-3,1,1,-1,-2,2020-11-12 23:21:45.806
1,-3,3,-6,-8,-3,-1,-2,2020-11-12 23:21:45.812
1,-3,3,-6,-8,-3,-1,-2,2020-11-12 23:21:45.819
1,-3,3,-6,-8,-3,-1,-2,2020-11-12 23:21:45.826
-2,7,-7,-3,3,1,-1,1,2020-11-12 23:21:45.831
-3,-9,-6,-4,-4,-2,1,-2,2020-11-12 23:21:45.838
-3,-9,-6,-4,-4,-2,1,-2,2020-11-12 23:21:45.845
4,16,-4,-2,-4,-1,1,2,2020-11-12 23:21:45.852
-5,-9,1,0,-2,-3,-3,-2,2020-11-12 23:21:45.858
-5,-9,1,0,-2,-3,-3,-2,2020-11-12 23:21:45.864
-5,-9,1,0,-2,-3,-3,-2,2020-11-12 23:21:45.871
-5,-11,-2,0,-1,0,-2,-1,2020-11-12 23:21:45.877
1,0,-2,0,4,1,3,3,2020-11-12 23:21:45.884
1,0,-2,0,4,1,3,3,2020-11-12 23:21:45.890
2,8,9,5,-9,-1,0,0,2020-11-12 23:21:45.896
2,8,9,5,-9,-1,0,0,2020-11-12 23:21:45.902
2,8,9,5,-9,-1,0,0,2020-11-12 23:21:45.909
1,-1,1,0,-3,0,-2,-4,2020-11-12 23:21:45.915
-2,-2,-6,0,7,3,-1,-1,2020-11-12 23:21:45.919
-2,-2,-6,0,7,3,-1,-1,2020-11-12 23:21:45.927
-1,6,-11,4,-1,0,0,0,2020-11-12 23:21:45.933
-1,6,-11,4,-1,0,0,0,2020-11-12 23:21:45.939
-5,-16,-6,-1,-2,-2,0,0,2020-11-12 23:21:45.945
-5,-16,-6,-1,-2,-2,0,0,2020-11-12 23:21:45.951
-4,-5,-13,12,0,-2,-4,-3,2020-11-12 23:21:45.958
-4,-5,-13,12,0,-2,-4,-3,2020-11-12 23:21:45.964
-4,-12,-5,-2,0,-2,-3,-4,2020-11-12 23:21:45.971
-1,5,5,-2,2,-1,0,-2,2020-11-12 23:21:45.977
-1,5,5,-2,2,-1,0,-2,2020-11-12 23:21:45.985
-1,5,5,-2,2,-1,0,-2,2020-11-12 23:21:45.990
0,1,-11,-5,-7,-1,3,3,2020-11-12 23:21:45.996
1,17,7,0,6,-1,-2,-1,2020-11-12 23:21:46.003
1,17,7,0,6,-1,-2,-1,2020-11-12 23:21:46.008
1,17,7,0,6,-1,-2,-1,2020-11-12 23:21:46.015
4,15,2,0,-5,-1,1,2,2020-11-12 23:21:46.024
-4,11,12,-10,2,0,-1,0,2020-11-12 23:21:46.030
-4,11,12,-10,2,0,-1,0,2020-11-12 23:21:46.037
-3,-20,-8,4,-3,-3,-2,-3,2020-11-12 23:21:46.043
-3,-20,-8,4,-3,-3,-2,-3,2020-11-12 23:21:46.049
4,-3,-2,-3,4,0,-1,-2,2020-11-12 23:21:46.056
-2,-8,3,-7,2,0,0,1,2020-11-12 23:21:46.062
-2,-8,3,-7,2,0,0,1,2020-11-12 23:21:46.069
-2,-8,3,-7,2,0,0,1,2020-11-12 23:21:46.075
0,-2,-3,-2,-17,-2,-2,-2,2020-11-12 23:21:46.092
0,14,8,0,-7,-2,-1,-2,2020-11-12 23:21:46.098
0,14,8,0,-7,-2,-1,-2,2020-11-12 23:21:46.105
-1,4,6,2,3,-1,-1,0,2020-11-12 23:21:46.110
-1,4,6,2,3,-1,-1,0,2020-11-12 23:21:46.117
-1,-11,-5,-5,0,-1,0,-1,2020-11-12 23:21:46.123
-1,-11,-5,-5,0,-1,0,-1,2020-11-12 23:21:46.129
-1,-11,-5,-5,0,-1,0,-1,2020-11-12 23:21:46.135
2,-1,3,-3,1,-1,-2,2,2020-11-12 23:21:46.140
2,-1,3,-3,1,-1,-2,2,2020-11-12 23:21:46.146
-1,-5,-3,-1,-2,-1,0,-1,2020-11-12 23:21:46.153
-1,0,1,-1,5,1,-1,-1,2020-11-12 23:21:46.159
-1,0,1,-1,5,1,-1,-1,2020-11-12 23:21:46.164
-1,0,1,-1,5,1,-1,-1,2020-11-12 23:21:46.171
5,9,3,10,-1,2,1,1,2020-11-12 23:21:46.177
2,13,8,-4,-11,-4,3,9,2020-11-12 23:21:46.182
2,13,8,-4,-11,-4,3,9,2020-11-12 23:21:46.188
2,13,8,-4,-11,-4,3,9,2020-11-12 23:21:46.195
-4,-8,-7,2,4,-1,-5,-6,2020-11-12 23:21:46.201
-4,-8,-7,2,4,-1,-5,-6,2020-11-12 23:21:46.206
-2,3,0,-9,1,0,-2,-1,2020-11-12 23:21:46.212
-4,-4,4,0,0,1,0,0,2020-11-12 23:21:46.218
-4,-4,4,0,0,1,0,0,2020-11-12 23:21:46.223
-4,-4,4,0,0,1,0,0,2020-11-12 23:21:46.228
-4,-4,4,0,0,1,0,0,2020-11-12 23:21:46.235
5,3,-1,-10,7,1,4,3,2020-11-12 23:21:46.240
5,3,-1,-10,7,1,4,3,2020-11-12 23:21:46.246
5,3,-1,-10,7,1,4,3,2020-11-12 23:21:46.252
0,10,-2,1,5,2,0,-2,2020-11-12 23:21:46.259
0,10,-2,1,5,2,0,-2,2020-11-12 23:21:46.264
1,-6,-7,-6,-10,-3,-1,0,2020-11-12 23:21:46.271
-1,-1,7,3,-2,-1,-1,-2,2020-11-12 23:21:46.276
-1,-1,7,3,-2,-1,-1,-2,2020-11-12 23:21:46.282
-1,-1,7,3,-2,-1,-1,-2,2020-11-12 23:21:46.289
-1,-3,6,7,3,0,0,0,2020-11-12 23:21:46.295
-2,-4,0,0,-3,-3,2,2,2020-11-12 23:21:46.301
-2,-4,0,0,-3,-3,2,2,2020-11-12 23:21:46.307
-2,-4,0,0,-3,-3,2,2,2020-11-12 23:21:46.312
-3,-2,-10,-3,-2,1,-2,-3,2020-11-12 23:21:46.319
-3,-2,-10,-3,-2,1,-2,-3,2020-11-12 23:21:46.325
3,2,-6,1,8,1,1,-1,2020-11-12 23:21:46.331
0,-10,-3,-5,-7,-1,-3,-2,2020-11-12 23:21:46.339
0,-10,-3,-5,-7,-1,-3,-2,2020-11-12 23:21:46.344
0,-10,-3,-5,-7,-1,-3,-2,2020-11-12 23:21:46.351
-2,3,1,4,-2,-1,-2,-2,2020-11-12 23:21:46.358
-2,-5,-13,-8,2,-1,-2,-4,2020-11-12 23:21:46.364
-2,-5,-13,-8,2,-1,-2,-4,2020-11-12 23:21:46.371
0,16,9,-1,3,1,-1,0,2020-11-12 23:21:46.377
0,16,9,-1,3,1,-1,0,2020-11-12 23:21:46.382
0,16,9,-1,3,1,-1,0,2020-11-12 23:21:46.389
-3,-6,-1,-3,2,-1,-1,-1,2020-11-12 23:21:46.395
-4,-8,-14,-1,-1,-2,-4,-3,2020-11-12 23:21:46.401
-4,-8,-14,-1,-1,-2,-4,-3,2020-11-12 23:21:46.407
-5,-6,3,1,-4,-1,-2,-4,2020-11-12 23:21:46.412
-5,-6,3,1,-4,-1,-2,-4,2020-11-12 23:21:46.419
2,-7,-6,-5,-5,-2,1,2,2020-11-12 23:21:46.425
2,-7,-6,-5,-5,-2,1,2,2020-11-12 23:21:46.431
-6,-17,-4,4,-2,0,-1,-3,2020-11-12 23:21:46.437
-6,-17,-4,4,-2,0,-1,-3,2020-11-12 23:21:46.443
-6,-17,-4,4,-2,0,-1,-3,2020-11-12 23:21:46.449
4,6,8,-4,-2,0,-1,0,2020-11-12 23:21:46.456
0,-4,-1,-2,-1,-1,-1,1,2020-11-12 23:21:46.462
0,-4,-1,-2,-1,-1,-1,1,2020-11-12 23:21:46.469
1,11,8,10,1,-1,0,0,2020-11-12 23:21:46.476
1,3,7,3,-2,-1,-1,-2,2020-11-12 23:21:46.481
1,3,7,3,-2,-1,-1,-2,2020-11-12 23:21:46.487
1,3,7,3,-2,-1,-1,-2,2020-11-12 23:21:46.493
1,3,7,3,-2,-1,-1,-2,2020-11-12 23:21:46.499
1,6,7,0,4,0,0,0,2020-11-12 23:21:46.506
1,6,7,0,4,0,0,0,2020-11-12 23:21:46.511
1,6,7,0,4,0,0,0,2020-11-12 23:21:46.517
3,7,4,5,-2,-1,2,4,2020-11-12 23:21:46.523
3,7,4,5,-2,-1,2,4,2020-11-12 23:21:46.529
1,9,0,-5,-2,0,0,1,2020-11-12 23:21:46.536
-2,9,0,-5,-1,-2,-4,-4,2020-11-12 23:21:46.541
-2,9,0,-5,-1,-2,-4,-4,2020-11-12 23:21:46.547
-2,9,0,-5,-1,-2,-4,-4,2020-11-12 23:21:46.554
-3,-7,-2,-2,-8,1,1,0,2020-11-12 23:21:46.558
-3,-7,-2,-2,-8,1,1,0,2020-11-12 23:21:46.564
-3,-7,-2,-2,-8,1,1,0,2020-11-12 23:21:46.570
-1,-6,-2,-1,-1,-1,-1,2,2020-11-12 23:21:46.576
-1,-6,2,0,-1,-1,0,-1,2020-11-12 23:21:46.582
-1,-6,2,0,-1,-1,0,-1,2020-11-12 23:21:46.589
0,-3,-3,-4,1,0,-1,1,2020-11-12 23:21:46.595
1,-18,-1,5,4,0,1,1,2020-11-12 23:21:46.601
1,-18,-1,5,4,0,1,1,2020-11-12 23:21:46.607
1,-18,-1,5,4,0,1,1,2020-11-12 23:21:46.613
3,-14,2,-1,5,1,0,2,2020-11-12 23:21:46.620
-2,13,18,1,-1,-1,-2,-1,2020-11-12 23:21:46.626
-3,-9,-15,-6,-9,-3,-2,-3,2020-11-12 23:21:46.631
-2,3,-3,-1,-1,0,0,-1,2020-11-12 23:21:46.638
-2,3,-3,-1,-1,0,0,-1,2020-11-12 23:21:46.644
-2,3,-3,-1,-1,0,0,-1,2020-11-12 23:21:46.649
-2,3,-3,-1,-1,0,0,-1,2020-11-12 23:21:46.656
-1,-7,-10,2,-4,-2,0,-1,2020-11-12 23:21:46.662
-1,-7,-10,2,-4,-2,0,-1,2020-11-12 23:21:46.668
2,15,18,2,2,-1,0,-2,2020-11-12 23:21:46.674
2,-10,-8,3,4,2,1,0,2020-11-12 23:21:46.679
2,5,-12,-12,4,-1,-1,2,2020-11-12 23:21:46.686
-2,3,-8,3,1,0,-1,-2,2020-11-12 23:21:46.692
1,1,-2,2,-1,-3,-3,-4,2020-11-12 23:21:46.698
1,1,-2,2,-1,-3,-3,-4,2020-11-12 23:21:46.705
1,1,-2,2,-1,-3,-3,-4,2020-11-12 23:21:46.711
-2,-6,-4,-4,0,-1,0,-2,2020-11-12 23:21:46.717
0,-10,1,5,-4,2,0,1,2020-11-12 23:21:46.723
0,-10,1,5,-4,2,0,1,2020-11-12 23:21:46.729
3,-3,1,3,2,-2,-1,-2,2020-11-12 23:21:46.736
3,-3,1,3,2,-2,-1,-2,2020-11-12 23:21:46.741
-2,-11,-6,-2,1,1,-1,-2,2020-11-12 23:21:46.747
-2,-11,-6,-2,1,1,-1,-2,2020-11-12 23:21:46.753
-4,2,4,19,-9,-4,-3,-4,2020-11-12 23:21:46.759
-4,2,4,19,-9,-4,-3,-4,2020-11-12 23:21:46.764
-4,2,4,19,-9,-4,-3,-4,2020-11-12 23:21:46.770
-5,-11,-6,0,1,1,2,0,2020-11-12 23:21:46.777
-1,-1,0,0,-1,0,-1,-2,2020-11-12 23:21:46.782
-1,-1,0,0,-1,0,-1,-2,2020-11-12 23:21:46.789
-1,-1,0,0,-1,0,-1,-2,2020-11-12 23:21:46.795
-1,-1,0,0,-1,0,-1,-2,2020-11-12 23:21:46.801
8,38,14,-4,1,0,-1,-2,2020-11-12 23:21:46.817
-3,-6,-6,-5,3,1,-1,-1,2020-11-12 23:21:46.823
-3,-6,-6,-5,3,1,-1,-1,2020-11-12 23:21:46.829
-2,1,2,10,1,1,0,-3,2020-11-12 23:21:46.835
2,-11,-8,-3,0,0,2,5,2020-11-12 23:21:46.841
2,-11,-8,-3,0,0,2,5,2020-11-12 23:21:46.858
-7,-1,-8,-5,-3,-1,-3,-6,2020-11-12 23:21:46.863
-7,-1,-8,-5,-3,-1,-3,-6,2020-11-12 23:21:46.869
-7,-1,-8,-5,-3,-1,-3,-6,2020-11-12 23:21:46.876
-6,-14,-14,-2,4,-1,-1,-2,2020-11-12 23:21:46.882
-6,-14,-14,-2,4,-1,-1,-2,2020-11-12 23:21:46.888
3,12,-8,-8,-3,-1,-3,-2,2020-11-12 23:21:46.893
3,12,-8,-8,-3,-1,-3,-2,2020-11-12 23:21:46.899
-3,-4,6,2,-11,-3,1,0,2020-11-12 23:21:46.905
-3,-4,6,2,-11,-3,1,0,2020-11-12 23:21:46.911
-2,-4,5,0,3,1,0,1,2020-11-12 23:21:46.917
1,4,-2,-4,4,-1,-1,2,2020-11-12 23:21:46.923
1,4,-2,-4,4,-1,-1,2,2020-11-12 23:21:46.929
1,4,-2,-4,4,-1,-1,2,2020-11-12 23:21:46.935
1,10,4,-6,-8,-2,0,1,2020-11-12 23:21:46.940
1,10,4,-6,-8,-2,0,1,2020-11-12 23:21:46.947
5,-10,0,0,3,0,2,4,2020-11-12 23:21:46.954
-3,-20,-2,-4,-4,-1,1,-2,2020-11-12 23:21:46.959
-3,-20,-2,-4,-4,-1,1,-2,2020-11-12 23:21:46.965
-3,-20,-2,-4,-4,-1,1,-2,2020-11-12 23:21:46.971
2,-8,3,-7,2,0,1,3,2020-11-12 23:21:46.977
1,3,5,0,-5,-2,-2,-1,2020-11-12 23:21:46.984
1,3,5,0,-5,-2,-2,-1,2020-11-12 23:21:46.990
1,3,5,0,-5,-2,-2,-1,2020-11-12 23:21:46.996
3,11,-3,-1,0,3,3,3,2020-11-12 23:21:47.003
3,11,-3,-1,0,3,3,3,2020-11-12 23:21:47.009
1,-4,-2,2,-14,-2,-1,-1,2020-11-12 23:21:47.015
2,6,6,0,1,0,-2,0,2020-11-12 23:21:47.021
2,6,6,0,1,0,-2,0,2020-11-12 23:21:47.028
2,6,6,0,1,0,-2,0,2020-11-12 23:21:47.035
-3,-1,-9,0,4,-1,0,-2,2020-11-12 23:21:47.040
5,12,-8,-4,-2,-2,1,2,2020-11-12 23:21:47.046
5,12,-8,-4,-2,-2,1,2,2020-11-12 23:21:47.052
5,12,-8,-4,-2,-2,1,2,2020-11-12 23:21:47.058
0,12,-1,0,-3,-2,-2,0,2020-11-12 23:21:47.065
0,12,-1,0,-3,-2,-2,0,2020-11-12 23:21:47.071
-5,-3,0,-3,-3,-1,-2,-1,2020-11-12 23:21:47.077
-5,-27,-16,-3,2,-1,-3,-2,2020-11-12 23:21:47.083
-5,-27,-16,-3,2,-1,-3,-2,2020-11-12 23:21:47.090
-1,-13,-6,-2,-9,-1,-1,0,2020-11-12 23:21:47.096
2,22,6,-11,0,-4,-4,-5,2020-11-12 23:21:47.102
-5,-6,1,16,2,-2,-2,-2,2020-11-12 23:21:47.108
-5,-6,1,16,2,-2,-2,-2,2020-11-12 23:21:47.115
1,0,5,-2,-8,0,-1,-2,2020-11-12 23:21:47.121
1,0,5,-2,-8,0,-1,-2,2020-11-12 23:21:47.128
-2,-1,-3,3,2,0,-2,-2,2020-11-12 23:21:47.134
-2,-1,-9,-6,-8,-2,-1,-2,2020-11-12 23:21:47.140
-2,-1,-9,-6,-8,-2,-1,-2,2020-11-12 23:21:47.146
-2,-1,-9,-6,-8,-2,-1,-2,2020-11-12 23:21:47.154
-2,-5,-4,-5,-1,-2,-4,-4,2020-11-12 23:21:47.160
2,-15,1,1,5,2,5,8,2020-11-12 23:21:47.166
2,-15,1,1,5,2,5,8,2020-11-12 23:21:47.171
2,-15,1,1,5,2,5,8,2020-11-12 23:21:47.177
-4,3,-1,-2,0,-2,-5,-10,2020-11-12 23:21:47.183
-4,3,-1,-2,0,-2,-5,-10,2020-11-12 23:21:47.190
3,30,6,20,-1,-3,1,3,2020-11-12 23:21:47.196
1,2,0,-1,4,1,2,1,2020-11-12 23:21:47.202
1,2,0,-1,4,1,2,1,2020-11-12 23:21:47.208
1,2,0,-1,4,1,2,1,2020-11-12 23:21:47.214
-4,-10,-4,-5,-4,-2,-3,-6,2020-11-12 23:21:47.220
3,5,5,1,3,2,2,5,2020-11-12 23:21:47.227
3,5,5,1,3,2,2,5,2020-11-12 23:21:47.232
-3,-17,5,-5,-2,-2,1,0,2020-11-12 23:21:47.238
1,10,12,-4,5,-1,-4,-5,2020-11-12 23:21:47.244
1,10,12,-4,5,-1,-4,-5,2020-11-12 23:21:47.250
1,-17,-2,-2,-5,-2,0,-1,2020-11-12 23:21:47.256
-3,0,9,5,-7,1,3,4,2020-11-12 23:21:47.262
-3,0,9,5,-7,1,3,4,2020-11-12 23:21:47.268
-3,0,9,5,-7,1,3,4,2020-11-12 23:21:47.274
0,2,-2,-4,1,0,-2,-3,2020-11-12 23:21:47.280
-4,8,-10,9,-5,-3,-6,-8,2020-11-12 23:21:47.286
-4,8,-10,9,-5,-3,-6,-8,2020-11-12 23:21:47.292
-4,8,-10,9,-5,-3,-6,-8,2020-11-12 23:21:47.297
-6,-10,0,-2,3,-1,-1,-3,2020-11-12 23:21:47.303
-6,-10,0,-2,3,-1,-1,-3,2020-11-12 23:21:47.309
0,7,3,1,1,0,1,1,2020-11-12 23:21:47.314
-3,-12,1,-3,0,0,-2,-5,2020-11-12 23:21:47.321
-3,-12,1,-3,0,0,-2,-5,2020-11-12 23:21:47.327
-3,-12,1,-3,0,0,-2,-5,2020-11-12 23:21:47.333
2,-2,5,-7,-3,0,2,5,2020-11-12 23:21:47.341
-1,-6,-3,-1,1,0,-1,1,2020-11-12 23:21:47.347
-1,-6,-3,-1,1,0,-1,1,2020-11-12 23:21:47.354
3,9,-2,-3,4,1,-1,-3,2020-11-12 23:21:47.360
3,9,-2,-3,4,1,-1,-3,2020-11-12 23:21:47.366
3,12,-3,16,-3,-3,0,3,2020-11-12 23:21:47.373
3,12,-3,16,-3,-3,0,3,2020-11-12 23:21:47.379
1,-3,-19,-5,1,0,0,1,2020-11-12 23:21:47.385
1,-3,-19,-5,1,0,0,1,2020-11-12 23:21:47.391
-3,7,1,-3,3,1,-3,-4,2020-11-12 23:21:47.398
0,-12,0,2,-4,-4,-4,-2,2020-11-12 23:21:47.405
0,-12,0,2,-4,-4,-4,-2,2020-11-12 23:21:47.411
1,-9,3,-7,0,1,3,3,2020-11-12 23:21:47.418
0,-2,3,-2,-1,-2,0,2,2020-11-12 23:21:47.424
0,-2,3,-2,-1,-2,0,2,2020-11-12 23:21:47.429
-2,-7,-6,1,9,3,1,0,2020-11-12 23:21:47.436
3,2,0,-4,-6,-1,1,1,2020-11-12 23:21:47.442
3,2,0,-4,-6,-1,1,1,2020-11-12 23:21:47.448
1,-5,-1,2,8,0,-3,-1,2020-11-12 23:21:47.455
-5,5,0,14,-1,-4,-3,-4,2020-11-12 23:21:47.461
-4,2,4,-2,-2,-2,-3,-3,2020-11-12 23:21:47.467
-4,2,4,-2,-2,-2,-3,-3,2020-11-12 23:21:47.474
-1,9,11,0,-1,-1,3,4,2020-11-12 23:21:47.480
-1,9,11,0,-1,-1,3,4,2020-11-12 23:21:47.487
1,-9,-13,-8,-3,-2,-1,-2,2020-11-12 23:21:47.494
1,-3,-5,-1,-1,0,0,1,2020-11-12 23:21:47.499
1,-3,-5,-1,-1,0,0,1,2020-11-12 23:21:47.506
1,-3,-5,-1,-1,0,0,1,2020-11-12 23:21:47.512
3,4,0,-4,1,-1,1,2,2020-11-12 23:21:47.518
-2,1,-2,2,7,-1,4,-4,2020-11-12 23:21:47.524
-2,1,-2,2,7,-1,4,-4,2020-11-12 23:21:47.530
-2,1,-2,2,7,-1,4,-4,2020-11-12 23:21:47.537
-3,-3,3,-6,-12,3,24,6,2020-11-12 23:21:47.543
22,12,7,8,28,80,-15,34,2020-11-12 23:21:47.549
20,10,5,-3,-3,52,68,31,2020-11-12 23:21:47.556
-53,-19,-9,-2,6,-12,-31,-111,2020-11-12 23:21:47.561
-53,-19,-9,-2,6,-12,-31,-111,2020-11-12 23:21:47.567
-53,-19,-9,-2,6,-12,-31,-111,2020-11-12 23:21:47.574
-48,-26,-19,-20,-4,50,26,-47,2020-11-12 23:21:47.580
25,-5,-6,-9,-12,-1,-24,116,2020-11-12 23:21:47.586
25,-5,-6,-9,-12,-1,-24,116,2020-11-12 23:21:47.592
8,0,1,-1,-2,-41,34,41,2020-11-12 23:21:47.598
8,0,1,-1,-2,-41,34,41,2020-11-12 23:21:47.604
8,0,1,-1,-2,-41,34,41,2020-11-12 23:21:47.610
19,9,5,2,7,-38,-31,38,2020-11-12 23:21:47.616
-9,13,2,1,-6,-46,-7,-38,2020-11-12 23:21:47.623
-9,13,2,1,-6,-46,-7,-38,2020-11-12 23:21:47.640
19,2,3,1,-20,-8,57,84,2020-11-12 23:21:47.646
19,2,3,1,-20,-8,57,84,2020-11-12 23:21:47.652
-6,-1,-1,0,-4,-12,-45,-16,2020-11-12 23:21:47.658
7,-1,-1,2,-1,7,-31,-7,2020-11-12 23:21:47.664
7,-1,-1,2,-1,7,-31,-7,2020-11-12 23:21:47.671
7,-1,-1,2,-1,7,-31,-7,2020-11-12 23:21:47.677
8,6,4,2,6,12,27,2,2020-11-12 23:21:47.683
8,6,4,2,6,12,27,2,2020-11-12 23:21:47.690
-6,-3,-3,1,12,-8,-32,-42,2020-11-12 23:21:47.697
-6,-6,-7,-9,-31,-19,-16,-12,2020-11-12 23:21:47.703
-6,-6,-7,-9,-31,-19,-16,-12,2020-11-12 23:21:47.709
-6,-6,-7,-9,-31,-19,-16,-12,2020-11-12 23:21:47.715
-2,-9,5,5,2,-5,-3,-7,2020-11-12 23:21:47.721
11,3,1,0,6,-3,14,13,2020-11-12 23:21:47.727
11,3,1,0,6,-3,14,13,2020-11-12 23:21:47.733
11,3,1,0,6,-3,14,13,2020-11-12 23:21:47.740
6,6,6,1,-7,5,3,6,2020-11-12 23:21:47.746
6,6,6,1,-7,5,3,6,2020-11-12 23:21:47.752
0,4,3,2,10,2,-8,-3,2020-11-12 23:21:47.758
0,-3,0,5,14,-12,2,-4,2020-11-12 23:21:47.764
0,-3,0,5,14,-12,2,-4,2020-11-12 23:21:47.770
0,-3,0,5,14,-12,2,-4,2020-11-12 23:21:47.776
1,1,4,-1,8,-3,5,4,2020-11-12 23:21:47.781
2,-3,-13,-3,5,5,3,-3,2020-11-12 23:21:47.788
2,-3,-13,-3,5,5,3,-3,2020-11-12 23:21:47.794
4,1,6,-3,-20,-1,5,8,2020-11-12 23:21:47.801
-10,-6,-1,1,13,-1,-9,-11,2020-11-12 23:21:47.807
-10,-6,-1,1,13,-1,-9,-11,2020-11-12 23:21:47.813
-5,-2,-4,-5,-5,5,-4,-4,2020-11-12 23:21:47.819
3,-1,-1,-1,4,3,2,0,2020-11-12 23:21:47.826
3,-1,-1,-1,4,3,2,0,2020-11-12 23:21:47.832
-3,-3,-9,-4,-3,2,1,0,2020-11-12 23:21:47.839
-1,-2,1,-1,1,2,5,2,2020-11-12 23:21:47.845
-6,-8,-3,-12,-8,-5,-9,-9,2020-11-12 23:21:47.850
-6,-8,-3,-12,-8,-5,-9,-9,2020-11-12 23:21:47.857
-2,14,0,12,-2,6,2,0,2020-11-12 23:21:47.863
-2,14,0,12,-2,6,2,0,2020-11-12 23:21:47.869
-5,-8,0,1,-6,-3,-2,-2,2020-11-12 23:21:47.875
-5,-8,0,1,-6,-3,-2,-2,2020-11-12 23:21:47.881
-2,-13,3,3,15,10,4,-1,2020-11-12 23:21:47.888
-2,-13,3,3,15,10,4,-1,2020-11-12 23:21:47.893
-2,-13,3,3,15,10,4,-1,2020-11-12 23:21:47.900
-1,13,7,-6,-10,-6,-9,-7,2020-11-12 23:21:47.906
-1,6,3,-6,3,4,0,-5,2020-11-12 23:21:47.911
-1,6,3,-6,3,4,0,-5,2020-11-12 23:21:47.917
3,-1,0,0,-9,-7,-24,-4,2020-11-12 23:21:47.924
3,-1,0,0,-9,-7,-24,-4,2020-11-12 23:21:47.929
0,5,1,-7,-8,-8,-9,-7,2020-11-12 23:21:47.936
4,-5,2,1,-5,1,-9,-2,2020-11-12 23:21:47.941
4,-5,2,1,-5,1,-9,-2,2020-11-12 23:21:47.947
4,-5,2,1,-5,1,-9,-2,2020-11-12 23:21:47.954
1,-12,-5,4,0,-22,9,1,2020-11-12 23:21:47.960
-4,-10,-5,-6,-21,-26,12,0,2020-11-12 23:21:47.966
-4,-10,-5,-6,-21,-26,12,0,2020-11-12 23:21:47.972
-4,-10,-5,-6,-21,-26,12,0,2020-11-12 23:21:47.979
-3,0,3,-6,0,11,1,-1,2020-11-12 23:21:47.985
-3,0,3,-6,0,11,1,-1,2020-11-12 23:21:47.991
-8,-16,-25,10,-1,19,-42,-18,2020-11-12 23:21:47.997
-2,-10,-6,-8,-3,14,27,6,2020-11-12 23:21:48.004
-2,-10,-6,-8,-3,14,27,6,2020-11-12 23:21:48.010
-2,-10,-6,-8,-3,14,27,6,2020-11-12 23:21:48.016
1,-15,-13,-14,4,15,-5,-1,2020-11-12 23:21:48.022
2,21,2,5,-4,-16,-3,-1,2020-11-12 23:21:48.028
2,21,2,5,-4,-16,-3,-1,2020-11-12 23:21:48.034
-5,-8,-7,-4,-6,-6,-40,-18,2020-11-12 23:21:48.040
-3,-18,-15,22,-3,-37,-36,-10,2020-11-12 23:21:48.046
-3,-18,-15,22,-3,-37,-36,-10,2020-11-12 23:21:48.052
0,-4,0,1,-3,1,7,5,2020-11-12 23:21:48.058
1,-12,4,-1,7,25,52,12,2020-11-12 23:21:48.064
1,-12,4,-1,7,25,52,12,2020-11-12 23:21:48.071
-3,13,0,-5,-8,-32,-29,-12,2020-11-12 23:21:48.077
2,6,8,1,-4,-12,-9,1,2020-11-12 23:21:48.082
7,3,8,3,9,43,23,8,2020-11-12 23:21:48.089
7,3,8,3,9,43,23,8,2020-11-12 23:21:48.095
2,4,2,2,10,-6,-38,-6,2020-11-12 23:21:48.100
2,4,2,2,10,-6,-38,-6,2020-11-12 23:21:48.108
2,4,2,2,10,-6,-38,-6,2020-11-12 23:21:48.114
9,10,1,-7,-8,-46,-38,14,2020-11-12 23:21:48.120
-6,11,-15,-19,-1,16,7,-21,2020-11-12 23:21:48.126
-6,11,-15,-19,-1,16,7,-21,2020-11-12 23:21:48.132
-7,-42,-12,-1,0,11,30,-4,2020-11-12 23:21:48.139
14,7,14,-10,3,6,-6,15,2020-11-12 23:21:48.145
14,7,14,-10,3,6,-6,15,2020-11-12 23:21:48.150
14,7,14,-10,3,6,-6,15,2020-11-12 23:21:48.157
1,19,1,3,2,9,8,-3,2020-11-12 23:21:48.163
-19,-3,-6,-1,-13,-28,-14,-7,2020-11-12 23:21:48.170
8,11,2,6,5,-3,4,4,2020-11-12 23:21:48.176
5,8,10,-3,-14,-32,-51,-11,2020-11-12 23:21:48.182
5,3,-13,-21,2,18,4,4,2020-11-12 23:21:48.188
5,3,-13,-21,2,18,4,4,2020-11-12 23:21:48.195
-8,11,-8,-7,-9,-5,-33,-12,2020-11-12 23:21:48.201
-8,-5,-1,-2,-16,-35,-20,-10,2020-11-12 23:21:48.208
-8,-5,-1,-2,-16,-35,-20,-10,2020-11-12 23:21:48.214
-8,-5,-1,-2,-16,-35,-20,-10,2020-11-12 23:21:48.221
4,-7,0,10,8,59,60,26,2020-11-12 23:21:48.228
4,-7,0,10,8,59,60,26,2020-11-12 23:21:48.235
-12,11,-3,-11,-8,86,44,-17,2020-11-12 23:21:48.241
-1,1,4,9,4,-19,39,-2,2020-11-12 23:21:48.247
-1,1,4,9,4,-19,39,-2,2020-11-12 23:21:48.255
10,-2,1,0,-11,-37,-15,4,2020-11-12 23:21:48.261
-1,0,2,7,0,-4,-39,-7,2020-11-12 23:21:48.267
-1,0,2,7,0,-4,-39,-7,2020-11-12 23:21:48.273
-1,0,2,7,0,-4,-39,-7,2020-11-12 23:21:48.278
-8,1,4,2,-13,-82,-81,-20,2020-11-12 23:21:48.284
-8,1,4,2,-13,-82,-81,-20,2020-11-12 23:21:48.291
-10,-13,-3,1,6,-1,0,-13,2020-11-12 23:21:48.297
-5,-7,0,1,-8,6,17,1,2020-11-12 23:21:48.304
-5,-7,0,1,-8,6,17,1,2020-11-12 23:21:48.310
-5,-7,0,1,-8,6,17,1,2020-11-12 23:21:48.315
-5,2,-10,0,-2,3,0,-7,2020-11-12 23:21:48.322
9,-8,1,-12,-16,-8,-24,10,2020-11-12 23:21:48.328
9,-8,1,-12,-16,-8,-24,10,2020-11-12 23:21:48.334
-11,-37,-3,4,1,-5,18,-4,2020-11-12 23:21:48.341
-1,44,-2,4,13,21,-9,-11,2020-11-12 23:21:48.347
-1,44,-2,4,13,21,-9,-11,2020-11-12 23:21:48.355
14,7,1,1,-9,-35,-15,32,2020-11-12 23:21:48.362
-3,0,9,-6,2,-8,20,-4,2020-11-12 23:21:48.368
-3,0,9,-6,2,-8,20,-4,2020-11-12 23:21:48.375
-3,-8,4,5,-4,-23,-11,-2,2020-11-12 23:21:48.381
11,19,-1,0,6,39,46,12,2020-11-12 23:21:48.388
11,19,-1,0,6,39,46,12,2020-11-12 23:21:48.394
-4,-9,-23,-1,12,38,11,-17,2020-11-12 23:21:48.400
-2,-27,-7,-9,6,-17,1,1,2020-11-12 23:21:48.407
-2,-27,-7,-9,6,-17,1,1,2020-11-12 23:21:48.414
6,30,25,-1,-23,-1,-16,-6,2020-11-12 23:21:48.420
-16,-17,-6,16,10,3,7,-11,2020-11-12 23:21:48.426
-16,-17,-6,16,10,3,7,-11,2020-11-12 23:21:48.445
1,-13,-10,18,1,14,-27,-1,2020-11-12 23:21:48.452
1,-13,-10,18,1,14,-27,-1,2020-11-12 23:21:48.459
-7,-43,-17,22,3,24,56,2,2020-11-12 23:21:48.466
-7,-43,-17,22,3,24,56,2,2020-11-12 23:21:48.472
12,28,-12,-27,-31,-10,15,5,2020-11-12 23:21:48.478
19,52,22,0,1,0,5,25,2020-11-12 23:21:48.484
19,52,22,0,1,0,5,25,2020-11-12 23:21:48.491
-9,-60,-20,5,5,-9,-10,-6,2020-11-12 23:21:48.498
-9,-60,-20,5,5,-9,-10,-6,2020-11-12 23:21:48.504
-18,-37,-4,3,16,-21,-26,-19,2020-11-12 23:21:48.511
-18,-37,-4,3,16,-21,-26,-19,2020-11-12 23:21:48.517
24,-3,-24,4,7,15,21,43,2020-11-12 23:21:48.523
-5,-25,0,-43,-26,-23,-16,-7,2020-11-12 23:21:48.529
-24,-15,-6,6,16,-7,-9,-35,2020-11-12 23:21:48.535
-24,-15,-6,6,16,-7,-9,-35,2020-11-12 23:21:48.542
24,58,17,13,7,-28,-19,0,2020-11-12 23:21:48.548
24,58,17,13,7,-28,-19,0,2020-11-12 23:21:48.555
5,7,-7,0,4,-12,6,9,2020-11-12 23:21:48.561
-15,-28,-10,-8,3,19,-3,-17,2020-11-12 23:21:48.567
-15,-28,-10,-8,3,19,-3,-17,2020-11-12 23:21:48.574
26,75,38,9,13,7,5,22,2020-11-12 23:21:48.580
26,75,38,9,13,7,5,22,2020-11-12 23:21:48.586
-17,-19,-11,-6,-12,-4,-23,-7,2020-11-12 23:21:48.592
-8,-16,-2,8,6,13,3,-4,2020-11-12 23:21:48.598
-9,-2,-9,-9,-23,-28,2,-2,2020-11-12 23:21:48.605
-9,-2,-9,-9,-23,-28,2,-2,2020-11-12 23:21:48.610
-9,-2,-9,-9,-23,-28,2,-2,2020-11-12 23:21:48.616
10,0,-1,-11,-2,-19,-23,-1,2020-11-12 23:21:48.623
1,4,-7,1,0,5,1,-4,2020-11-12 23:21:48.629
1,4,-7,1,0,5,1,-4,2020-11-12 23:21:48.635
-19,-34,-8,0,0,9,0,-14,2020-11-12 23:21:48.642
-19,-34,-8,0,0,9,0,-14,2020-11-12 23:21:48.647
18,18,16,3,-6,3,18,18,2020-11-12 23:21:48.654
18,18,16,3,-6,3,18,18,2020-11-12 23:21:48.659
-4,5,1,11,9,-25,-17,3,2020-11-12 23:21:48.666
-4,5,1,11,9,-25,-17,3,2020-11-12 23:21:48.672
-1,-11,-7,-2,4,-16,-32,-2,2020-11-12 23:21:48.678
-2,-2,1,0,15,53,26,-4,2020-11-12 23:21:48.684
-2,-2,1,0,15,53,26,-4,2020-11-12 23:21:48.691
-2,-2,1,0,15,53,26,-4,2020-11-12 23:21:48.698
0,6,-4,-2,-6,26,25,8,2020-11-12 23:21:48.704
5,2,1,-3,0,-2,-34,-10,2020-11-12 23:21:48.710
5,2,1,-3,0,-2,-34,-10,2020-11-12 23:21:48.716
5,2,1,-3,0,-2,-34,-10,2020-11-12 23:21:48.722
5,9,-9,-7,4,-10,10,7,2020-11-12 23:21:48.728
5,9,-9,-7,4,-10,10,7,2020-11-12 23:21:48.734
8,2,-2,-2,-2,10,-3,10,2020-11-12 23:21:48.740
-6,-10,-12,1,-8,-10,-44,-1,2020-11-12 23:21:48.746
-6,-10,-12,1,-8,-10,-44,-1,2020-11-12 23:21:48.753
-6,-10,-12,1,-8,-10,-44,-1,2020-11-12 23:21:48.759
0,-23,-11,3,-5,-14,8,-8,2020-11-12 23:21:48.765
-6,-14,5,3,-4,-34,-8,-7,2020-11-12 23:21:48.772
-6,-14,5,3,-4,-34,-8,-7,2020-11-12 23:21:48.779
1,47,22,-7,-10,-34,-15,-9,2020-11-12 23:21:48.784
1,47,22,-7,-10,-34,-15,-9,2020-11-12 23:21:48.792
-8,-51,-45,-21,-11,-2,9,-2,2020-11-12 23:21:48.798
-8,-51,-45,-21,-11,-2,9,-2,2020-11-12 23:21:48.804
-27,-6,-39,-22,-17,49,9,-39,2020-11-12 23:21:48.810
-27,-6,-39,-22,-17,49,9,-39,2020-11-12 23:21:48.816
-14,-8,-9,-7,1,-15,-1,-6,2020-11-12 23:21:48.822
5,-14,-17,-8,-5,11,15,14,2020-11-12 23:21:48.829
5,-14,-17,-8,-5,11,15,14,2020-11-12 23:21:48.835
5,-14,-17,-8,-5,11,15,14,2020-11-12 23:21:48.841
6,37,22,11,3,2,40,21,2020-11-12 23:21:48.847
6,37,22,11,3,2,40,21,2020-11-12 23:21:48.852
6,13,13,-3,-3,11,-32,-5,2020-11-12 23:21:48.859
7,1,7,-4,7,-19,19,9,2020-11-12 23:21:48.864
7,1,7,-4,7,-19,19,9,2020-11-12 23:21:48.871
7,1,7,-4,7,-19,19,9,2020-11-12 23:21:48.877
-5,30,8,-2,6,-2,-8,-4,2020-11-12 23:21:48.883
2,-3,1,11,8,29,-11,3,2020-11-12 23:21:48.890
2,-3,1,11,8,29,-11,3,2020-11-12 23:21:48.896
2,-3,1,11,8,29,-11,3,2020-11-12 23:21:48.901
8,-18,-8,-10,8,-12,-20,13,2020-11-12 23:21:48.908
8,-18,-8,-10,8,-12,-20,13,2020-11-12 23:21:48.914
-17,-11,-7,-7,-9,-21,8,-24,2020-11-12 23:21:48.920
9,-10,-1,8,-4,9,4,11,2020-11-12 23:21:48.926
9,-10,-1,8,-4,9,4,11,2020-11-12 23:21:48.932
9,-10,-1,8,-4,9,4,11,2020-11-12 23:21:48.939
-9,-1,10,10,-4,21,2,4,2020-11-12 23:21:48.945
-28,-33,-11,-19,-38,-22,-3,-28,2020-11-12 23:21:48.950
-28,-33,-11,-19,-38,-22,-3,-28,2020-11-12 23:21:48.957
13,15,13,11,-6,25,17,5,2020-11-12 23:21:48.963
13,15,13,11,-6,25,17,5,2020-11-12 23:21:48.969
13,15,13,11,-6,25,17,5,2020-11-12 23:21:48.976
-2,-12,-5,-12,-10,-30,-19,-5,2020-11-12 23:21:48.982
5,-36,-4,19,30,15,10,11,2020-11-12 23:21:48.989
5,-36,-4,19,30,15,10,11,2020-11-12 23:21:48.995
18,2,-2,-9,-7,16,-18,2,2020-11-12 23:21:49.001
0,40,28,2,4,-21,-24,-28,2020-11-12 23:21:49.008
0,40,28,2,4,-21,-24,-28,2020-11-12 23:21:49.014
0,40,28,2,4,-21,-24,-28,2020-11-12 23:21:49.020
4,-13,2,10,9,-3,-12,6,2020-11-12 23:21:49.026
4,-13,2,10,9,-3,-12,6,2020-11-12 23:21:49.032
-31,-15,-12,-7,-41,-4,-13,-31,2020-11-12 23:21:49.038
-31,-15,-12,-7,-41,-4,-13,-31,2020-11-12 23:21:49.043
15,-10,-6,5,4,5,17,11,2020-11-12 23:21:49.049
15,-10,-6,5,4,5,17,11,2020-11-12 23:21:49.056
-16,-9,-1,41,43,-2,1,6,2020-11-12 23:21:49.062
-9,-7,-21,-44,-40,5,7,9,2020-11-12 23:21:49.068
-9,-7,-21,-44,-40,5,7,9,2020-11-12 23:21:49.075
-9,-7,-21,-44,-40,5,7,9,2020-11-12 23:21:49.081
-7,-26,-19,-2,4,-4,2,9,2020-11-12 23:21:49.088
-7,-26,-19,-2,4,-4,2,9,2020-11-12 23:21:49.094
-5,15,20,5,5,-7,-5,-13,2020-11-12 23:21:49.100
2,-21,-10,7,-5,1,-9,-16,2020-11-12 23:21:49.107
2,-21,-10,7,-5,1,-9,-16,2020-11-12 23:21:49.113
2,-21,-10,7,-5,1,-9,-16,2020-11-12 23:21:49.119
27,21,13,-3,3,7,28,34,2020-11-12 23:21:49.125
-13,-1,-3,6,-12,-10,-17,5,2020-11-12 23:21:49.131
-13,-1,-3,6,-12,-10,-17,5,2020-11-12 23:21:49.138
-7,10,14,5,2,4,-14,-14,2020-11-12 23:21:49.145
-7,10,14,5,2,4,-14,-14,2020-11-12 23:21:49.150
-7,10,14,5,2,4,-14,-14,2020-11-12 23:21:49.157
3,11,17,-5,12,13,4,-2,2020-11-12 23:21:49.163
-1,24,7,12,-9,12,13,-4,2020-11-12 23:21:49.169
-1,24,7,12,-9,12,13,-4,2020-11-12 23:21:49.176
-6,-22,-18,0,9,-7,-21,-3,2020-11-12 23:21:49.182
-3,7,8,-6,-14,19,1,-4,2020-11-12 23:21:49.188
-3,7,8,-6,-14,19,1,-4,2020-11-12 23:21:49.195
-3,7,8,-6,-14,19,1,-4,2020-11-12 23:21:49.201
7,0,-3,-3,-12,11,30,22,2020-11-12 23:21:49.209
7,0,-3,-3,-12,11,30,22,2020-11-12 23:21:49.215
7,0,-3,-3,-12,11,30,22,2020-11-12 23:21:49.222
-8,-9,-4,-10,1,-24,-13,-7,2020-11-12 23:21:49.229
-8,-9,-4,-10,1,-24,-13,-7,2020-11-12 23:21:49.235
9,12,9,-8,1,16,39,12,2020-11-12 23:21:49.241
0,-8,1,3,-14,-1,-11,-5,2020-11-12 23:21:49.259
-3,-7,10,1,-11,12,30,6,2020-11-12 23:21:49.265
-3,-7,10,1,-11,12,30,6,2020-11-12 23:21:49.271
-3,-7,10,1,-11,12,30,6,2020-11-12 23:21:49.278
0,-11,3,6,-1,-18,-65,1,2020-11-12 23:21:49.284
7,1,-1,5,22,29,19,14,2020-11-12 23:21:49.290
7,1,-1,5,22,29,19,14,2020-11-12 23:21:49.296
-10,12,-7,-17,-41,-39,-6,-33,2020-11-12 23:21:49.302
11,52,7,-13,8,-15,-14,0,2020-11-12 23:21:49.308
11,52,7,-13,8,-15,-14,0,2020-11-12 23:21:49.314
11,52,7,-13,8,-15,-14,0,2020-11-12 23:21:49.320
1,-51,-31,1,1,-46,0,7,2020-11-12 23:21:49.327
1,-51,-31,1,1,-46,0,7,2020-11-12 23:21:49.333
-13,-2,2,7,-4,12,-33,-11,2020-11-12 23:21:49.339
-1,-9,-1,7,3,-11,7,7,2020-11-12 23:21:49.345
-1,-9,-1,7,3,-11,7,7,2020-11-12 23:21:49.352
-1,-9,-1,7,3,-11,7,7,2020-11-12 23:21:49.359
8,11,-4,-5,-2,3,3,9,2020-11-12 23:21:49.366
3,-8,-14,-6,11,40,14,2,2020-11-12 23:21:49.374
3,-8,-14,-6,11,40,14,2,2020-11-12 23:21:49.380
7,-12,6,-11,-24,-20,-4,5,2020-11-12 23:21:49.386
7,-12,6,-11,-24,-20,-4,5,2020-11-12 23:21:49.393
13,-6,3,24,7,25,21,14,2020-11-12 23:21:49.399
-8,1,10,5,14,8,-13,-12,2020-11-12 23:21:49.406
-8,1,10,5,14,8,-13,-12,2020-11-12 23:21:49.411
-8,1,10,5,14,8,-13,-12,2020-11-12 23:21:49.418
5,0,-3,-10,0,-4,9,5,2020-11-12 23:21:49.424
-1,20,9,17,28,-22,-38,-18,2020-11-12 23:21:49.430
-1,20,9,17,28,-22,-38,-18,2020-11-12 23:21:49.436
0,-12,-15,-25,-21,-27,-10,-2,2020-11-12 23:21:49.443
0,-12,-15,-25,-21,-27,-10,-2,2020-11-12 23:21:49.449
-17,-19,-26,7,8,-1,4,5,2020-11-12 23:21:49.456
-14,-19,7,10,18,7,-3,-21,2020-11-12 23:21:49.462
-11,-3,2,-15,7,9,-1,4,2020-11-12 23:21:49.468
-11,-3,2,-15,7,9,-1,4,2020-11-12 23:21:49.474
3,-6,5,9,26,-3,1,25,2020-11-12 23:21:49.480
3,-6,5,9,26,-3,1,25,2020-11-12 23:21:49.486
12,-9,-5,-8,-51,-4,4,25,2020-11-12 23:21:49.492
12,-9,-5,-8,-51,-4,4,25,2020-11-12 23:21:49.498
-24,-7,-7,-7,-3,-15,-5,-26,2020-11-12 23:21:49.505
58,37,39,27,11,7,13,-9,2020-11-12 23:21:49.511
58,37,39,27,11,7,13,-9,2020-11-12 23:21:49.517
-14,-18,-4,-1,6,10,12,4,2020-11-12 23:21:49.523
-7,7,-7,-46,-37,-12,-11,-22,2020-11-12 23:21:49.529
-7,7,-7,-46,-37,-12,-11,-22,2020-11-12 23:21:49.535
14,43,15,9,17,4,-1,4,2020-11-12 23:21:49.542
14,43,15,9,17,4,-1,4,2020-11-12 23:21:49.547
14,43,15,9,17,4,-1,4,2020-11-12 23:21:49.553
17,56,15,11,-9,13,8,13,2020-11-12 23:21:49.560
-12,-5,-13,-3,6,-13,-3,-8,2020-11-12 23:21:49.566
-2,9,10,35,6,4,6,3,2020-11-12 23:21:49.572
-2,9,10,35,6,4,6,3,2020-11-12 23:21:49.578
-2,9,10,35,6,4,6,3,2020-11-12 23:21:49.583
-10,-17,-7,0,-5,-1,-1,2,2020-11-12 23:21:49.589
-10,-17,-7,0,-5,-1,-1,2,2020-11-12 23:21:49.595
6,4,-3,-2,-4,-1,5,12,2020-11-12 23:21:49.601
-15,-10,-12,-10,-16,-9,-14,-7,2020-11-12 23:21:49.607
-15,-10,-12,-10,-16,-9,-14,-7,2020-11-12 23:21:49.612
-15,-10,-12,-10,-16,-9,-14,-7,2020-11-12 23:21:49.619
7,13,-1,-3,1,-5,-7,-1,2020-11-12 23:21:49.626
-7,-3,4,3,-28,-18,-9,-8,2020-11-12 23:21:49.632
-7,-3,4,3,-28,-18,-9,-8,2020-11-12 23:21:49.639
1,0,-7,-22,-12,3,9,-1,2020-11-12 23:21:49.645
-8,-3,3,6,7,7,-2,-10,2020-11-12 23:21:49.650
-8,-3,3,6,7,7,-2,-10,2020-11-12 23:21:49.657
11,8,1,0,10,56,95,23,2020-11-12 23:21:49.662
-6,-2,-1,-3,9,39,4,2,2020-11-12 23:21:49.669
-6,-2,-1,-3,9,39,4,2,2020-11-12 23:21:49.675
-6,-2,-1,-3,9,39,4,2,2020-11-12 23:21:49.681
10,6,5,4,15,-23,-37,2,2020-11-12 23:21:49.687
-9,-7,-3,-6,-8,-33,0,-8,2020-11-12 23:21:49.693
-9,-7,-3,-6,-8,-33,0,-8,2020-11-12 23:21:49.699
-9,-7,-3,-6,-8,-33,0,-8,2020-11-12 23:21:49.706
-9,-7,-3,-6,-8,-33,0,-8,2020-11-12 23:21:49.711
-3,-1,-4,-3,-3,9,-10,-2,2020-11-12 23:21:49.717
2,1,1,0,-18,-28,-54,-5,2020-11-12 23:21:49.724
7,4,5,-1,18,-1,-53,6,2020-11-12 23:21:49.730
7,4,5,-1,18,-1,-53,6,2020-11-12 23:21:49.735
7,4,5,-1,18,-1,-53,6,2020-11-12 23:21:49.741
-1,-3,-5,-3,-10,-26,-51,-10,2020-11-12 23:21:49.747
9,5,6,5,17,-42,1,18,2020-11-12 23:21:49.753
9,5,6,5,17,-42,1,18,2020-11-12 23:21:49.760
2,0,1,3,-14,-18,-20,2,2020-11-12 23:21:49.765
-10,-11,-12,-16,9,-34,12,-9,2020-11-12 23:21:49.772
-10,-11,-12,-16,9,-34,12,-9,2020-11-12 23:21:49.778
-8,-3,-2,0,-13,-27,-20,-16,2020-11-12 23:21:49.784
-9,-8,-2,-7,5,-3,1,-5,2020-11-12 23:21:49.791
-9,-8,-2,-7,5,-3,1,-5,2020-11-12 23:21:49.797
-10,-7,-4,0,-17,26,4,-12,2020-11-12 23:21:49.803
-10,-7,-4,0,-17,26,4,-12,2020-11-12 23:21:49.809
-3,-3,-7,-10,-15,9,-3,-17,2020-11-12 23:21:49.815
-3,-3,-7,-10,-15,9,-3,-17,2020-11-12 23:21:49.821
-2,-3,-2,0,-3,9,12,1,2020-11-12 23:21:49.828
-2,-3,-2,0,-3,9,12,1,2020-11-12 23:21:49.834
13,6,5,3,-8,-11,-18,15,2020-11-12 23:21:49.840
13,6,5,3,-8,-11,-18,15,2020-11-12 23:21:49.847
-12,-9,-4,0,14,15,-37,-26,2020-11-12 23:21:49.852
-12,-9,-4,0,14,15,-37,-26,2020-11-12 23:21:49.859
3,5,3,-1,-11,-5,19,27,2020-11-12 23:21:49.865
-9,-3,-2,-1,9,29,32,-32,2020-11-12 23:21:49.872
-9,-3,-2,-1,9,29,32,-32,2020-11-12 23:21:49.878
-9,-3,-2,-1,9,29,32,-32,2020-11-12 23:21:49.883
-2,-2,-2,-1,-4,-12,-19,-7,2020-11-12 23:21:49.890
-2,-2,-2,-1,-4,-12,-19,-7,2020-11-12 23:21:49.896
1,-3,-3,-3,-11,-21,-11,-1,2020-11-12 23:21:49.902
2,-1,0,1,4,-4,24,17,2020-11-12 23:21:49.909
2,-1,0,1,4,-4,24,17,2020-11-12 23:21:49.915
2,-1,0,1,4,-4,24,17,2020-11-12 23:21:49.921
7,5,3,4,0,-19,-39,4,2020-11-12 23:21:49.927
-20,-13,-8,-8,-2,25,-21,-33,2020-11-12 23:21:49.932
-20,-13,-8,-8,-2,25,-21,-33,2020-11-12 23:21:49.939
-20,-13,-8,-8,-2,25,-21,-33,2020-11-12 23:21:49.945
3,0,0,1,-2,-14,-9,14,2020-11-12 23:21:49.950
3,0,0,1,-2,-14,-9,14,2020-11-12 23:21:49.957
-8,-7,-5,-2,11,18,-7,-17,2020-11-12 23:21:49.963
12,9,6,4,40,15,27,22,2020-11-12 23:21:49.969
12,9,6,4,40,15,27,22,2020-11-12 23:21:49.976
-15,-11,-8,-1,38,17,-1,-38,2020-11-12 23:21:49.982
-15,-11,-8,-1,38,17,-1,-38,2020-11-12 23:21:49.988
5,13,9,3,7,-6,28,47,2020-11-12 23:21:49.994
5,13,9,3,7,-6,28,47,2020-11-12 23:21:50.000
-11,-3,-3,-2,-24,-22,-4,-9,2020-11-12 23:21:50.007
-11,-3,-3,-2,-24,-22,-4,-9,2020-11-12 23:21:50.013
-11,-3,-3,-2,-24,-22,-4,-9,2020-11-12 23:21:50.019
-4,-3,-2,-1,-21,17,28,-2,2020-11-12 23:21:50.025
-3,4,6,9,-4,13,18,12,2020-11-12 23:21:50.030
-3,4,6,9,-4,13,18,12,2020-11-12 23:21:50.038
-1,1,-2,-13,-19,-17,-14,-5,2020-11-12 23:21:50.044
7,-3,-4,-5,-6,-2,-10,-6,2020-11-12 23:21:50.049
7,-3,-4,-5,-6,-2,-10,-6,2020-11-12 23:21:50.056
7,-3,-4,-5,-6,-2,-10,-6,2020-11-12 23:21:50.074
8,4,-2,-4,5,13,-11,-1,2020-11-12 23:21:50.080
8,4,-2,-4,5,13,-11,-1,2020-11-12 23:21:50.087
-2,-2,0,6,5,-1,-17,-10,2020-11-12 23:21:50.093
-2,-2,0,6,5,-1,-17,-10,2020-11-12 23:21:50.099
4,1,-2,-5,-10,4,4,10,2020-11-12 23:21:50.106
1,-1,1,-3,1,0,9,7,2020-11-12 23:21:50.111
1,-1,1,-3,1,0,9,7,2020-11-12 23:21:50.117
1,-1,1,-3,1,0,9,7,2020-11-12 23:21:50.124
-3,1,-1,-15,-3,1,8,0,2020-11-12 23:21:50.130
-3,1,-1,-15,-3,1,8,0,2020-11-12 23:21:50.136
0,-3,-2,1,-6,-5,-17,-6,2020-11-12 23:21:50.142
-4,-6,-4,-4,1,34,14,9,2020-11-12 23:21:50.148
-4,-6,-4,-4,1,34,14,9,2020-11-12 23:21:50.154
-4,-6,-4,-4,1,34,14,9,2020-11-12 23:21:50.160
-1,-10,1,3,-1,-6,7,4,2020-11-12 23:21:50.166
-5,12,-2,15,-6,-4,0,-11,2020-11-12 23:21:50.172
-5,12,-2,15,-6,-4,0,-11,2020-11-12 23:21:50.178
-5,12,-2,15,-6,-4,0,-11,2020-11-12 23:21:50.184
7,-4,2,-11,-1,-2,-12,-5,2020-11-12 23:21:50.190
7,-4,2,-11,-1,-2,-12,-5,2020-11-12 23:21:50.197
-17,-5,4,-5,3,2,2,-9,2020-11-12 23:21:50.202
-3,-7,-6,-2,-3,-13,-2,-6,2020-11-12 23:21:50.209
-3,-7,-6,-2,-3,-13,-2,-6,2020-11-12 23:21:50.215
-3,-7,-6,-2,-3,-13,-2,-6,2020-11-12 23:21:50.221
-7,0,3,6,6,-14,-5,0,2020-11-12 23:21:50.227
-1,-1,-4,-13,-1,1,17,-1,2020-11-12 23:21:50.233
-1,-1,-4,-13,-1,1,17,-1,2020-11-12 23:21:50.240
-2,9,2,3,9,35,23,4,2020-11-12 23:21:50.246
3,5,7,11,5,-1,-8,2,2020-11-12 23:21:50.251
3,5,7,11,5,-1,-8,2,2020-11-12 23:21:50.258
5,8,-7,-15,-8,-1,-1,-2,2020-11-12 23:21:50.264
-1,0,11,2,10,5,4,5,2020-11-12 23:21:50.270
-1,0,11,2,10,5,4,5,2020-11-12 23:21:50.276
0,-2,-3,-7,9,5,8,5,2020-11-12 23:21:50.282
0,-2,-3,-7,9,5,8,5,2020-11-12 23:21:50.288
3,-5,-3,9,8,-11,-6,-6,2020-11-12 23:21:50.294
3,-5,-3,9,8,-11,-6,-6,2020-11-12 23:21:50.300
6,5,9,6,15,2,10,3,2020-11-12 23:21:50.307
-3,-9,-8,-9,-17,-19,-20,-9,2020-11-12 23:21:50.313
-3,-9,-8,-9,-17,-19,-20,-9,2020-11-12 23:21:50.319
0,0,0,-6,-18,-8,-2,-1,2020-11-12 23:21:50.325
-3,4,1,5,-7,-5,15,4,2020-11-12 23:21:50.330
-3,4,1,5,-7,-5,15,4,2020-11-12 23:21:50.337
5,-6,2,7,-2,-19,-21,5,2020-11-12 23:21:50.344
2,-2,-6,10,8,3,6,-1,2020-11-12 23:21:50.351
2,-2,-6,10,8,3,6,-1,2020-11-12 23:21:50.358
2,-2,-6,10,8,3,6,-1,2020-11-12 23:21:50.364
-2,6,2,-3,5,12,4,10,2020-11-12 23:21:50.370
-2,6,2,-3,5,12,4,10,2020-11-12 23:21:50.378
-2,6,2,-3,5,12,4,10,2020-11-12 23:21:50.384
-1,4,-9,-7,-14,1,-2,-13,2020-11-12 23:21:50.390
-1,4,-9,-7,-14,1,-2,-13,2020-11-12 23:21:50.397
-3,0,5,1,-8,-14,-12,1,2020-11-12 23:21:50.404
-8,-14,1,7,6,-8,-12,-7,2020-11-12 23:21:50.410
-8,-14,1,7,6,-8,-12,-7,2020-11-12 23:21:50.416
-8,-14,1,7,6,-8,-12,-7,2020-11-12 23:21:50.422
2,6,0,1,-7,-16,24,-2,2020-11-12 23:21:50.429
0,-5,-5,-8,7,48,14,-5,2020-11-12 23:21:50.435
0,3,1,-12,3,-5,-9,4,2020-11-12 23:21:50.442
-6,-3,-1,0,-2,-13,-12,-12,2020-11-12 23:21:50.448
-6,-3,-1,0,-2,-13,-12,-12,2020-11-12 23:21:50.455
-6,-3,-1,0,-2,-13,-12,-12,2020-11-12 23:21:50.461
-2,-19,-2,-11,9,-8,-7,-6,2020-11-12 23:21:50.467
3,-3,-1,-10,-13,-5,-11,1,2020-11-12 23:21:50.475
3,-3,-1,-10,-13,-5,-11,1,2020-11-12 23:21:50.480
-1,9,14,2,-1,2,-4,5,2020-11-12 23:21:50.487
6,5,0,0,0,2,15,2,2020-11-12 23:21:50.494
6,5,0,0,0,2,15,2,2020-11-12 23:21:50.500
6,5,0,0,0,2,15,2,2020-11-12 23:21:50.507
6,-3,6,3,1,-17,-15,2,2020-11-12 23:21:50.513
6,-3,6,3,1,-17,-15,2,2020-11-12 23:21:50.519
1,4,2,6,-3,-15,-6,6,2020-11-12 23:21:50.526
-1,1,-2,10,8,27,8,-1,2020-11-12 23:21:50.532
-1,1,-2,10,8,27,8,-1,2020-11-12 23:21:50.538
-1,1,-2,10,8,27,8,-1,2020-11-12 23:21:50.545
3,3,-1,7,-2,-14,-19,-6,2020-11-12 23:21:50.550
-4,-3,-4,-1,-16,0,1,1,2020-11-12 23:21:50.558
-4,-3,-4,-1,-16,0,1,1,2020-11-12 23:21:50.564
3,15,6,-18,1,0,0,1,2020-11-12 23:21:50.570
3,15,6,-18,1,0,0,1,2020-11-12 23:21:50.577
8,11,10,-14,-6,-18,-18,2,2020-11-12 23:21:50.583
8,11,10,-14,-6,-18,-18,2,2020-11-12 23:21:50.589
2,5,-5,-9,-9,0,-3,0,2020-11-12 23:21:50.595
2,5,-5,-9,-9,0,-3,0,2020-11-12 23:21:50.601
2,2,1,13,1,25,22,8,2020-11-12 23:21:50.608
3,-5,-2,6,3,-8,-29,-2,2020-11-12 23:21:50.614
3,-5,-2,6,3,-8,-29,-2,2020-11-12 23:21:50.620
3,-5,-2,6,3,-8,-29,-2,2020-11-12 23:21:50.627
-5,2,2,3,5,32,19,4,2020-11-12 23:21:50.633
-5,2,2,3,5,32,19,4,2020-11-12 23:21:50.640
-9,-6,-4,-6,6,7,-8,-8,2020-11-12 23:21:50.646
5,-2,-3,-4,-7,-10,3,7,2020-11-12 23:21:50.652
5,-2,-3,-4,-7,-10,3,7,2020-11-12 23:21:50.658
5,-2,-3,-4,-7,-10,3,7,2020-11-12 23:21:50.665
-3,-1,-6,10,22,-1,8,-1,2020-11-12 23:21:50.670
-3,-5,-2,0,-22,-20,-1,-8,2020-11-12 23:21:50.677
-3,-5,-2,0,-22,-20,-1,-8,2020-11-12 23:21:50.683
-9,-7,8,6,-11,-11,6,-7,2020-11-12 23:21:50.689
-9,-7,8,6,-11,-11,6,-7,2020-11-12 23:21:50.695
-9,-7,8,6,-11,-11,6,-7,2020-11-12 23:21:50.701
-3,-4,6,3,11,24,16,9,2020-11-12 23:21:50.707
3,0,-8,3,-8,-60,-9,0,2020-11-12 23:21:50.713
3,0,-8,3,-8,-60,-9,0,2020-11-12 23:21:50.720
-14,-8,-7,-15,-5,-14,-28,-21,2020-11-12 23:21:50.727
-14,-8,-7,-15,-5,-14,-28,-21,2020-11-12 23:21:50.732
4,2,2,-17,1,9,1,1,2020-11-12 23:21:50.740
4,2,2,-17,1,9,1,1,2020-11-12 23:21:50.746
1,-3,-2,-11,-4,27,21,5,2020-11-12 23:21:50.751
1,-3,-2,-11,-4,27,21,5,2020-11-12 23:21:50.758
-6,-4,-24,-10,-6,5,13,-12,2020-11-12 23:21:50.764
8,6,9,18,5,-10,-6,8,2020-11-12 23:21:50.770
8,6,9,18,5,-10,-6,8,2020-11-12 23:21:50.777
8,6,9,18,5,-10,-6,8,2020-11-12 23:21:50.782
2,-1,9,9,4,20,25,8,2020-11-12 23:21:50.789
-5,-3,-2,-3,-3,-1,-16,-10,2020-11-12 23:21:50.795
-5,-3,-2,-3,-3,-1,-16,-10,2020-11-12 23:21:50.801
-5,-3,-2,-3,-3,-1,-16,-10,2020-11-12 23:21:50.808
-4,-1,-2,10,11,64,31,4,2020-11-12 23:21:50.814
-4,-1,-2,10,11,64,31,4,2020-11-12 23:21:50.820
5,4,-2,-5,-1,7,8,3,2020-11-12 23:21:50.826
0,3,-4,10,-5,0,8,-2,2020-11-12 23:21:50.832
0,3,-4,10,-5,0,8,-2,2020-11-12 23:21:50.839
0,3,-4,10,-5,0,8,-2,2020-11-12 23:21:50.845
2,-3,-1,24,20,5,18,3,2020-11-12 23:21:50.850
-3,0,11,2,-8,-10,-8,3,2020-11-12 23:21:50.857
-3,0,11,2,-8,-10,-8,3,2020-11-12 23:21:50.864
-4,-8,-7,3,13,22,13,11,2020-11-12 23:21:50.869
-4,-8,-7,3,13,22,13,11,2020-11-12 23:21:50.876
-5,3,6,23,1,7,-6,-6,2020-11-12 23:21:50.881
-5,3,6,23,1,7,-6,-6,2020-11-12 23:21:50.887
2,-2,2,3,-8,-30,-4,-6,2020-11-12 23:21:50.894
2,-2,2,3,-8,-30,-4,-6,2020-11-12 23:21:50.900
-2,5,7,-1,26,13,5,5,2020-11-12 23:21:50.917
-5,-5,-6,-10,-18,-7,-13,-7,2020-11-12 23:21:50.924
-3,-6,-1,3,-16,-50,-34,-7,2020-11-12 23:21:50.930
-3,-6,-1,3,-16,-50,-34,-7,2020-11-12 23:21:50.936
2,1,-3,-17,-5,-5,-9,4,2020-11-12 23:21:50.942
2,1,-3,-17,-5,-5,-9,4,2020-11-12 23:21:50.948
-5,-3,-9,-18,-22,-2,2,-8,2020-11-12 23:21:50.954
-5,-3,-9,-18,-22,-2,2,-8,2020-11-12 23:21:50.961
-10,-5,-1,-8,22,-23,-10,-13,2020-11-12 23:21:50.967
8,8,-22,-10,2,0,15,12,2020-11-12 23:21:50.974
8,8,-22,-10,2,0,15,12,2020-11-12 23:21:50.980
8,8,-22,-10,2,0,15,12,2020-11-12 23:21:50.985
-1,-1,4,8,30,4,-6,-7,2020-11-12 23:21:50.992
-1,-1,4,8,30,4,-6,-7,2020-11-12 23:21:50.998
7,6,14,1,1,29,16,14,2020-11-12 23:21:51.004
-3,5,1,-42,-15,-10,-52,-1,2020-11-12 23:21:51.011
-3,5,1,-42,-15,-10,-52,-1,2020-11-12 23:21:51.019
-6,-5,4,4,7,-21,9,-5,2020-11-12 23:21:51.026
-6,-5,4,4,7,-21,9,-5,2020-11-12 23:21:51.032
0,-7,-3,25,-28,16,22,4,2020-11-12 23:21:51.038
0,-7,-3,25,-28,16,22,4,2020-11-12 23:21:51.045
-1,12,-18,-25,-21,-20,-16,-7,2020-11-12 23:21:51.051
-1,12,-18,-25,-21,-20,-16,-7,2020-11-12 23:21:51.058
-22,-15,-4,4,-26,-33,-23,-35,2020-11-12 23:21:51.064
16,26,16,6,-20,-2,1,17,2020-11-12 23:21:51.069
16,26,16,6,-20,-2,1,17,2020-11-12 23:21:51.076
16,26,16,6,-20,-2,1,17,2020-11-12 23:21:51.082
-3,2,12,6,32,37,24,-3,2020-11-12 23:21:51.088
-15,4,7,23,-24,-27,-13,-8,2020-11-12 23:21:51.095
-15,4,7,23,-24,-27,-13,-8,2020-11-12 23:21:51.100
-15,4,7,23,-24,-27,-13,-8,2020-11-12 23:21:51.107
9,-3,3,9,-38,-24,2,11,2020-11-12 23:21:51.112
9,-3,3,9,-38,-24,2,11,2020-11-12 23:21:51.119
9,9,-9,-33,34,-12,-9,19,2020-11-12 23:21:51.126
-5,-19,8,16,25,12,5,-4,2020-11-12 23:21:51.131
-5,-19,8,16,25,12,5,-4,2020-11-12 23:21:51.137
-5,-19,8,16,25,12,5,-4,2020-11-12 23:21:51.144
14,-9,2,19,40,-2,14,22,2020-11-12 23:21:51.150
4,-22,-14,10,-9,38,49,15,2020-11-12 23:21:51.156
4,-22,-14,10,-9,38,49,15,2020-11-12 23:21:51.162
18,21,-4,54,20,29,24,22,2020-11-12 23:21:51.168
18,21,-4,54,20,29,24,22,2020-11-12 23:21:51.174
-20,-13,-2,-2,-14,14,-12,-28,2020-11-12 23:21:51.181
-2,-2,2,-5,-13,14,5,2,2020-11-12 23:21:51.187
11,3,-1,-9,-44,0,10,25,2020-11-12 23:21:51.193
11,3,-1,-9,-44,0,10,25,2020-11-12 23:21:51.199
-18,-6,16,-19,-8,-25,-24,-28,2020-11-12 23:21:51.205
-18,-6,16,-19,-8,-25,-24,-28,2020-11-12 23:21:51.211
-18,-6,16,-19,-8,-25,-24,-28,2020-11-12 23:21:51.217
30,17,9,16,-7,9,22,28,2020-11-12 23:21:51.223
-11,-4,2,-9,-13,-22,-17,-19,2020-11-12 23:21:51.229
-11,-4,2,-9,-13,-22,-17,-19,2020-11-12 23:21:51.235
-11,-4,2,-9,-13,-22,-17,-19,2020-11-12 23:21:51.241
3,-3,-5,-16,-30,-48,-21,9,2020-11-12 23:21:51.248
-6,-10,-10,-4,-12,-13,-23,-12,2020-11-12 23:21:51.254
-6,-10,-10,-4,-12,-13,-23,-12,2020-11-12 23:21:51.260
-2,-6,3,-8,13,19,8,-2,2020-11-12 23:21:51.266
-2,-6,3,-8,13,19,8,-2,2020-11-12 23:21:51.272
-2,-6,3,-8,13,19,8,-2,2020-11-12 23:21:51.278
-14,-7,7,38,19,-65,-47,-13,2020-11-12 23:21:51.285
0,8,1,-35,13,76,50,4,2020-11-12 23:21:51.291
0,8,1,-35,13,76,50,4,2020-11-12 23:21:51.297
-4,-5,-7,12,-8,-9,-32,-2,2020-11-12 23:21:51.303
-5,5,4,-7,-26,-72,-40,-14,2020-11-12 23:21:51.309
-5,5,4,-7,-26,-72,-40,-14,2020-11-12 23:21:51.315
-5,5,4,-7,-26,-72,-40,-14,2020-11-12 23:21:51.321
-6,-8,-2,11,28,82,26,-5,2020-11-12 23:21:51.328
-1,0,-1,0,-22,32,7,-5,2020-11-12 23:21:51.334
-1,0,-1,0,-22,32,7,-5,2020-11-12 23:21:51.341
-12,-11,0,-4,27,-36,-9,-5,2020-11-12 23:21:51.347
-12,-11,0,-4,27,-36,-9,-5,2020-11-12 23:21:51.353
4,-2,-23,-25,-8,-40,-4,10,2020-11-12 23:21:51.360
6,-3,5,1,-33,4,11,29,2020-11-12 23:21:51.367
-2,-8,11,8,-10,-5,-12,-9,2020-11-12 23:21:51.374
-2,-8,11,8,-10,-5,-12,-9,2020-11-12 23:21:51.381
-4,4,-6,-5,28,5,-1,-17,2020-11-12 23:21:51.387
3,4,-8,-6,0,-6,-14,3,2020-11-12 23:21:51.394
3,4,-8,-6,0,-6,-14,3,2020-11-12 23:21:51.399
3,4,-8,-6,0,-6,-14,3,2020-11-12 23:21:51.406
-6,-6,3,-7,26,10,-14,1,2020-11-12 23:21:51.412
-1,6,-5,-1,-1,127,56,-17,2020-11-12 23:21:51.418
14,5,-4,0,-13,-62,-23,4,2020-11-12 23:21:51.425
6,0,10,-3,10,-8,-14,7,2020-11-12 23:21:51.430
6,0,10,-3,10,-8,-14,7,2020-11-12 23:21:51.436
6,0,10,-3,10,-8,-14,7,2020-11-12 23:21:51.443
-8,-25,-4,4,10,-11,9,5,2020-11-12 23:21:51.450
-12,-10,6,11,-12,-25,-33,-10,2020-11-12 23:21:51.456
-12,-10,6,11,-12,-25,-33,-10,2020-11-12 23:21:51.462
-4,-3,-6,1,30,17,18,-3,2020-11-12 23:21:51.468
-4,-3,-6,1,30,17,18,-3,2020-11-12 23:21:51.475
0,4,4,-1,10,-1,3,5,2020-11-12 23:21:51.481
0,4,4,-1,10,-1,3,5,2020-11-12 23:21:51.487
0,4,4,-1,10,-1,3,5,2020-11-12 23:21:51.493
-1,2,5,5,13,-54,-28,-1,2020-11-12 23:21:51.499
5,1,-5,-26,-24,10,31,10,2020-11-12 23:21:51.506
5,1,-5,-26,-24,10,31,10,2020-11-12 23:21:51.512
9,-1,0,-3,-1,-2,5,6,2020-11-12 23:21:51.518
9,-1,0,-3,-1,-2,5,6,2020-11-12 23:21:51.525
-7,5,-6,-2,-2,38,25,-6,2020-11-12 23:21:51.531
-20,-17,-6,-7,-9,-4,-4,-20,2020-11-12 23:21:51.537
-20,-17,-6,-7,-9,-4,-4,-20,2020-11-12 23:21:51.543
-20,-17,-6,-7,-9,-4,-4,-20,2020-11-12 23:21:51.549
-1,2,4,-2,28,-40,-18,4,2020-11-12 23:21:51.555
-1,2,4,-2,28,-40,-18,4,2020-11-12 23:21:51.561
2,6,15,20,4,-32,-39,-8,2020-11-12 23:21:51.567
14,11,-5,1,-28,-10,12,31,2020-11-12 23:21:51.573
14,11,-5,1,-28,-10,12,31,2020-11-12 23:21:51.579
14,11,-5,1,-28,-10,12,31,2020-11-12 23:21:51.585
3,-2,-1,8,6,19,16,-2,2020-11-12 23:21:51.592
0,-1,-3,-8,-3,1,6,-11,2020-11-12 23:21:51.597
0,-1,-3,-8,-3,1,6,-11,2020-11-12 23:21:51.602
0,-1,-3,-8,-3,1,6,-11,2020-11-12 23:21:51.608
3,3,4,4,12,31,34,7,2020-11-12 23:21:51.615
3,3,4,4,12,31,34,7,2020-11-12 23:21:51.622
-13,-16,-12,-7,2,40,25,-12,2020-11-12 23:21:51.628
-2,-6,-4,0,9,13,-2,2,2020-11-12 23:21:51.635
-2,-6,-4,0,9,13,-2,2,2020-11-12 23:21:51.641
5,4,-4,-4,-4,18,13,8,2020-11-12 23:21:51.647
5,4,-4,-4,-4,18,13,8,2020-11-12 23:21:51.652
-2,0,5,16,4,-18,-37,-3,2020-11-12 23:21:51.659
-2,0,5,16,4,-18,-37,-3,2020-11-12 23:21:51.666
-12,-17,-6,-8,0,-24,-21,-16,2020-11-12 23:21:51.671
-12,-17,-6,-8,0,-24,-21,-16,2020-11-12 23:21:51.677
-12,-17,-6,-8,0,-24,-21,-16,2020-11-12 23:21:51.684
15,16,12,5,-6,5,17,13,2020-11-12 23:21:51.690
-4,-1,-4,-5,1,1,-8,-12,2020-11-12 23:21:51.696
-4,-1,-4,-5,1,1,-8,-12,2020-11-12 23:21:51.702
15,9,8,-15,-6,23,27,26,2020-11-12 23:21:51.708
15,9,8,-15,-6,23,27,26,2020-11-12 23:21:51.715
-2,13,-3,-23,-4,-8,-2,-4,2020-11-12 23:21:51.720
-2,13,-3,-23,-4,-8,-2,-4,2020-11-12 23:21:51.728
-18,-23,-7,1,14,-11,-9,-16,2020-11-12 23:21:51.734
9,14,18,10,-22,22,36,13,2020-11-12 23:21:51.740
4,26,-2,3,-11,20,32,-12,2020-11-12 23:21:51.746
-19,-16,-2,4,13,18,1,-7,2020-11-12 23:21:51.764
7,-10,3,0,23,10,17,22,2020-11-12 23:21:51.770
0,15,-9,-5,-4,-7,-8,-10,2020-11-12 23:21:51.777
0,15,-9,-5,-4,-7,-8,-10,2020-11-12 23:21:51.782
0,15,-9,-5,-4,-7,-8,-10,2020-11-12 23:21:51.789
-16,-1,-5,-2,-1,2,-6,-23,2020-11-12 23:21:51.795
-16,-1,-5,-2,-1,2,-6,-23,2020-11-12 23:21:51.800
-2,-8,-5,3,10,4,-3,-17,2020-11-12 23:21:51.807
11,-10,-1,4,3,3,11,27,2020-11-12 23:21:51.812
11,-10,-1,4,3,3,11,27,2020-11-12 23:21:51.818
11,-10,-1,4,3,3,11,27,2020-11-12 23:21:51.825
2,-12,-3,-1,9,16,9,-17,2020-11-12 23:21:51.831
-28,-34,-19,-4,21,-20,-12,6,2020-11-12 23:21:51.837
-28,-34,-19,-4,21,-20,-12,6,2020-11-12 23:21:51.843
-28,-34,-19,-4,21,-20,-12,6,2020-11-12 23:21:51.849
-1,-10,-23,-29,27,-37,0,-1,2020-11-12 23:21:51.855
-1,-10,-23,-29,27,-37,0,-1,2020-11-12 23:21:51.861
-10,15,-11,-6,-4,7,12,4,2020-11-12 23:21:51.867
-7,-7,-2,53,-27,-16,-8,-8,2020-11-12 23:21:51.872
-7,-7,-2,53,-27,-16,-8,-8,2020-11-12 23:21:51.879
-7,-7,-2,53,-27,-16,-8,-8,2020-11-12 23:21:51.885
0,19,1,-1,3,-26,-20,-1,2020-11-12 23:21:51.891
31,4,4,3,1,51,24,9,2020-11-12 23:21:51.897
31,4,4,3,1,51,24,9,2020-11-12 23:21:51.903
31,4,4,3,1,51,24,9,2020-11-12 23:21:51.909
18,22,19,-8,11,1,1,10,2020-11-12 23:21:51.915
18,22,19,-8,11,1,1,10,2020-11-12 23:21:51.921
18,22,19,-8,11,1,1,10,2020-11-12 23:21:51.927
-7,6,-1,-6,14,-41,-11,-25,2020-11-12 23:21:51.933
8,-6,-4,-15,-25,14,16,12,2020-11-12 23:21:51.938
8,-6,-4,-15,-25,14,16,12,2020-11-12 23:21:51.946
-12,-3,7,-2,-21,-4,-24,-17,2020-11-12 23:21:51.952
5,8,13,-23,-10,-29,1,7,2020-11-12 23:21:51.959
5,8,13,-23,-10,-29,1,7,2020-11-12 23:21:51.964
8,-4,-3,11,31,-8,14,13,2020-11-12 23:21:51.970
-16,16,8,-8,3,18,-8,-16,2020-11-12 23:21:51.977
-16,16,8,-8,3,18,-8,-16,2020-11-12 23:21:51.982
-22,-11,-3,3,-1,-17,-17,-10,2020-11-12 23:21:51.988
1,-11,0,17,20,25,34,19,2020-11-12 23:21:51.995
1,-11,0,17,20,25,34,19,2020-11-12 23:21:52.001
-6,-18,-7,1,-16,-4,21,-3,2020-11-12 23:21:52.008
10,39,1,-3,-12,16,-15,-13,2020-11-12 23:21:52.014
-1,-12,-5,-1,9,-13,-9,6,2020-11-12 23:21:52.019
-1,-12,-5,-1,9,-13,-9,6,2020-11-12 23:21:52.026
-9,-2,1,8,8,-41,-30,-24,2020-11-12 23:21:52.032
-9,-2,1,8,8,-41,-30,-24,2020-11-12 23:21:52.038
-26,-4,-9,-4,-20,15,-12,-26,2020-11-12 23:21:52.046
32,15,4,7,8,-5,4,28,2020-11-12 23:21:52.052
32,15,4,7,8,-5,4,28,2020-11-12 23:21:52.059
32,15,4,7,8,-5,4,28,2020-11-12 23:21:52.065
8,12,13,0,2,-12,-3,7,2020-11-12 23:21:52.071
-46,-23,-20,-27,0,2,-7,-35,2020-11-12 23:21:52.078
-46,-23,-20,-27,0,2,-7,-35,2020-11-12 23:21:52.085
0,-1,4,3,23,-30,-20,-1,2020-11-12 23:21:52.092
0,-1,4,3,23,-30,-20,-1,2020-11-12 23:21:52.098
0,-1,4,3,23,-30,-20,-1,2020-11-12 23:21:52.104
-12,-21,-7,-8,2,-10,-9,16,2020-11-12 23:21:52.111
13,17,3,-5,-1,6,-4,-8,2020-11-12 23:21:52.117
13,17,3,-5,-1,6,-4,-8,2020-11-12 23:21:52.124
15,-5,-5,11,7,15,1,3,2020-11-12 23:21:52.130
-20,-16,-5,11,10,36,2,-19,2020-11-12 23:21:52.137
-20,-16,-5,11,10,36,2,-19,2020-11-12 23:21:52.144
-20,-16,-5,11,10,36,2,-19,2020-11-12 23:21:52.149
9,0,0,-13,5,16,36,5,2020-11-12 23:21:52.155
9,0,0,-13,5,16,36,5,2020-11-12 23:21:52.162
-14,-14,1,25,-16,-14,1,-18,2020-11-12 23:21:52.168
11,9,-12,-2,13,-34,-40,15,2020-11-12 23:21:52.175
11,9,-12,-2,13,-34,-40,15,2020-11-12 23:21:52.181
-16,11,-3,4,-16,-68,-19,-15,2020-11-12 23:21:52.187
-16,11,-3,4,-16,-68,-19,-15,2020-11-12 23:21:52.194
-4,0,4,-4,1,3,-17,-1,2020-11-12 23:21:52.200
-4,0,4,-4,1,3,-17,-1,2020-11-12 23:21:52.206
-2,-1,-3,15,24,8,-4,-10,2020-11-12 23:21:52.212
-2,-1,-3,15,24,8,-4,-10,2020-11-12 23:21:52.218
-2,-1,-3,15,24,8,-4,-10,2020-11-12 23:21:52.224
-16,-16,6,26,3,23,5,-34,2020-11-12 23:21:52.229
7,-5,6,11,8,5,14,15,2020-11-12 23:21:52.235
7,-5,6,11,8,5,14,15,2020-11-12 23:21:52.242
-2,-4,-2,-8,-9,25,21,-8,2020-11-12 23:21:52.248
-2,-4,-2,-8,-9,25,21,-8,2020-11-12 23:21:52.254
3,-2,8,3,3,12,-13,-9,2020-11-12 23:21:52.260
3,-2,8,3,3,12,-13,-9,2020-11-12 23:21:52.266
-13,-17,2,-5,-7,-17,-10,1,2020-11-12 23:21:52.272
15,3,0,-9,-4,43,45,0,2020-11-12 23:21:52.278
15,3,0,-9,-4,43,45,0,2020-11-12 23:21:52.284
11,2,-1,10,-14,-5,-9,13,2020-11-12 23:21:52.290
-13,1,12,-4,-7,-39,-28,-5,2020-11-12 23:21:52.296
-13,1,12,-4,-7,-39,-28,-5,2020-11-12 23:21:52.302
-13,-1,-6,-13,-6,19,15,16,2020-11-12 23:21:52.308
-13,-1,-6,-13,-6,19,15,16,2020-11-12 23:21:52.314
-14,-1,-7,0,-5,-20,-3,-14,2020-11-12 23:21:52.320
-14,-1,-7,0,-5,-20,-3,-14,2020-11-12 23:21:52.327
15,-1,-10,-11,-12,-12,9,15,2020-11-12 23:21:52.332
-4,14,18,-21,8,-17,-5,-9,2020-11-12 23:21:52.338
-4,14,18,-21,8,-17,-5,-9,2020-11-12 23:21:52.345
16,4,12,-5,1,2,1,11,2020-11-12 23:21:52.351
-5,-6,1,7,-3,1,-5,-12,2020-11-12 23:21:52.357
-5,-6,1,7,-3,1,-5,-12,2020-11-12 23:21:52.365
0,4,-11,-31,-10,-20,16,-4,2020-11-12 23:21:52.370
6,-5,1,20,6,-9,-22,8,2020-11-12 23:21:52.378
6,-5,1,20,6,-9,-22,8,2020-11-12 23:21:52.384
-22,-19,19,17,-1,13,-6,-20,2020-11-12 23:21:52.391
-22,-19,19,17,-1,13,-6,-20,2020-11-12 23:21:52.397
12,-3,-19,-22,7,33,40,1,2020-11-12 23:21:52.403
12,-3,-19,-22,7,33,40,1,2020-11-12 23:21:52.410
1,1,5,9,12,22,-10,5,2020-11-12 23:21:52.416
1,1,5,9,12,22,-10,5,2020-11-12 23:21:52.422
9,0,-7,11,13,5,4,13,2020-11-12 23:21:52.428
9,0,-7,11,13,5,4,13,2020-11-12 23:21:52.434
-18,-10,-20,-48,-7,-1,-10,-9,2020-11-12 23:21:52.440
-18,-10,-20,-48,-7,-1,-10,-9,2020-11-12 23:21:52.446
12,-9,-15,-13,-13,4,15,12,2020-11-12 23:21:52.453
-20,-12,-10,34,-2,-19,-19,-19,2020-11-12 23:21:52.459
-20,-12,-10,34,-2,-19,-19,-19,2020-11-12 23:21:52.465
-20,-12,-10,34,-2,-19,-19,-19,2020-11-12 23:21:52.471
17,4,-3,-5,3,17,26,11,2020-11-12 23:21:52.478
17,4,-3,-5,3,17,26,11,2020-11-12 23:21:52.484
13,-3,1,-2,0,-30,-16,0,2020-11-12 23:21:52.491
9,14,13,18,14,-9,-9,7,2020-11-12 23:21:52.497
9,14,13,18,14,-9,-9,7,2020-11-12 23:21:52.502
9,14,13,18,14,-9,-9,7,2020-11-12 23:21:52.509
12,1,-11,21,6,7,11,10,2020-11-12 23:21:52.515
12,4,2,-2,-7,-2,14,37,2020-11-12 23:21:52.521
12,4,2,-2,-7,-2,14,37,2020-11-12 23:21:52.528
-9,-8,23,13,15,37,24,9,2020-11-12 23:21:52.534
-9,-8,23,13,15,37,24,9,2020-11-12 23:21:52.540
-6,1,-14,30,4,-26,-12,-4,2020-11-12 23:21:52.547
-1,-1,-3,2,-6,12,13,1,2020-11-12 23:21:52.552
6,5,0,-4,-9,-31,-7,4,2020-11-12 23:21:52.559
6,5,0,-4,-9,-31,-7,4,2020-11-12 23:21:52.566
-6,-7,3,19,5,-10,-4,-10,2020-11-12 23:21:52.571
-4,-7,-6,7,2,9,-17,-15,2020-11-12 23:21:52.578
-4,-7,-6,7,2,9,-17,-15,2020-11-12 23:21:52.584
-4,-7,-6,7,2,9,-17,-15,2020-11-12 23:21:52.591
-11,3,-5,6,-14,-1,-3,-19,2020-11-12 23:21:52.598
-11,3,-5,6,-14,-1,-3,-19,2020-11-12 23:21:52.616
1,-8,-3,-10,-5,-6,-1,-12,2020-11-12 23:21:52.622
1,-8,-3,-10,-5,-6,-1,-12,2020-11-12 23:21:52.629
3,-1,-5,-10,-16,-19,-2,4,2020-11-12 23:21:52.635
-4,1,-4,-4,1,-15,-25,-4,2020-11-12 23:21:52.642
-4,1,-4,-4,1,-15,-25,-4,2020-11-12 23:21:52.648
-4,1,-4,-4,1,-15,-25,-4,2020-11-12 23:21:52.654
-4,1,-4,-4,1,-15,-25,-4,2020-11-12 23:21:52.661
-4,-4,-6,-6,-8,-7,-13,-3,2020-11-12 23:21:52.667
-16,-4,-4,-10,11,27,15,-19,2020-11-12 23:21:52.672
12,13,0,-3,-5,-16,4,10,2020-11-12 23:21:52.679
12,13,0,-3,-5,-16,4,10,2020-11-12 23:21:52.685
-1,1,5,7,9,-2,-1,-3,2020-11-12 23:21:52.691
-1,1,5,7,9,-2,-1,-3,2020-11-12 23:21:52.697
16,3,-13,-16,-5,5,20,26,2020-11-12 23:21:52.702
16,3,-13,-16,-5,5,20,26,2020-11-12 23:21:52.709
-19,-7,2,13,-6,-5,-3,-10,2020-11-12 23:21:52.715
-19,-7,2,13,-6,-5,-3,-10,2020-11-12 23:21:52.721
-6,-3,-5,-10,-2,-24,-27,-7,2020-11-12 23:21:52.728
-6,-3,-5,-10,-2,-24,-27,-7,2020-11-12 23:21:52.733
6,-4,-2,-3,-17,-1,10,2,2020-11-12 23:21:52.739
6,-4,-2,-3,-17,-1,10,2,2020-11-12 23:21:52.746
0,2,4,-1,1,-7,-5,-2,2020-11-12 23:21:52.752
3,1,-1,-4,-9,10,3,-1,2020-11-12 23:21:52.758
-14,-5,12,7,17,-22,5,-13,2020-11-12 23:21:52.764
-14,-5,12,7,17,-22,5,-13,2020-11-12 23:21:52.770
13,2,-1,9,-4,-8,2,10,2020-11-12 23:21:52.777
7,4,16,-3,1,11,4,7,2020-11-12 23:21:52.783
-5,-4,-3,2,-6,-4,-8,-18,2020-11-12 23:21:52.789
14,7,-2,-5,-7,-13,-15,8,2020-11-12 23:21:52.795
14,7,-2,-5,-7,-13,-15,8,2020-11-12 23:21:52.801
14,7,-2,-5,-7,-13,-15,8,2020-11-12 23:21:52.807
5,2,-8,-10,1,5,-1,9,2020-11-12 23:21:52.813
-16,-8,-9,-5,-6,-28,-18,-13,2020-11-12 23:21:52.819
-16,-8,-9,-5,-6,-28,-18,-13,2020-11-12 23:21:52.825
-16,-8,-9,-5,-6,-28,-18,-13,2020-11-12 23:21:52.831
-8,-7,-8,32,1,-13,-1,3,2020-11-12 23:21:52.837
-8,-7,-8,32,1,-13,-1,3,2020-11-12 23:21:52.844
-7,-7,-10,0,-11,7,9,-4,2020-11-12 23:21:52.850
14,11,17,31,2,11,2,-3,2020-11-12 23:21:52.855
14,11,17,31,2,11,2,-3,2020-11-12 23:21:52.861
14,11,17,31,2,11,2,-3,2020-11-12 23:21:52.867
-6,-7,-9,-36,2,-6,-11,4,2020-11-12 23:21:52.873
-6,-7,-9,-36,2,-6,-11,4,2020-11-12 23:21:52.879
-9,-2,-17,-20,2,45,18,-5,2020-11-12 23:21:52.885
-9,-2,-17,-20,2,45,18,-5,2020-11-12 23:21:52.891
0,2,6,6,14,15,9,-1,2020-11-12 23:21:52.897
0,2,6,6,14,15,9,-1,2020-11-12 23:21:52.903
-22,-13,6,17,6,18,2,-23,2020-11-12 23:21:52.909
6,1,2,-15,-14,-16,1,3,2020-11-12 23:21:52.915
6,1,2,-15,-14,-16,1,3,2020-11-12 23:21:52.921
6,1,2,-15,-14,-16,1,3,2020-11-12 23:21:52.927
-2,9,10,-7,8,-21,-13,-5,2020-11-12 23:21:52.934
4,-4,-25,-18,-1,28,23,-1,2020-11-12 23:21:52.940
4,-4,-25,-18,-1,28,23,-1,2020-11-12 23:21:52.946
4,-4,-25,-18,-1,28,23,-1,2020-11-12 23:21:52.951
3,1,-12,-35,-16,-16,-13,2,2020-11-12 23:21:52.958
3,1,-12,-35,-16,-16,-13,2,2020-11-12 23:21:52.964
-7,-2,0,5,3,-10,-4,-8,2020-11-12 23:21:52.970
-20,-9,-1,-7,-4,-4,-6,-12,2020-11-12 23:21:52.977
-20,-9,-1,-7,-4,-4,-6,-12,2020-11-12 23:21:52.984
4,6,5,13,-1,-2,6,7,2020-11-12 23:21:52.989
4,6,5,13,-1,-2,6,7,2020-11-12 23:21:52.996
7,-7,1,2,1,-5,-18,-16,2020-11-12 23:21:53.002
7,-7,1,2,1,-5,-18,-16,2020-11-12 23:21:53.008
-5,-6,16,13,7,-5,-8,-9,2020-11-12 23:21:53.014
-5,-6,16,13,7,-5,-8,-9,2020-11-12 23:21:53.019
-5,-6,16,13,7,-5,-8,-9,2020-11-12 23:21:53.027
1,3,-1,-21,-4,7,6,8,2020-11-12 23:21:53.032
3,1,-3,-8,1,8,3,0,2020-11-12 23:21:53.038
3,1,-3,-8,1,8,3,0,2020-11-12 23:21:53.045
-24,-7,-12,43,-3,-8,-13,-26,2020-11-12 23:21:53.050
-24,-7,-12,43,-3,-8,-13,-26,2020-11-12 23:21:53.056
3,-8,-5,8,0,-6,-9,-4,2020-11-12 23:21:53.063
3,-8,-5,8,0,-6,-9,-4,2020-11-12 23:21:53.069
-25,0,8,18,13,-11,14,4,2020-11-12 23:21:53.076
-25,0,8,18,13,-11,14,4,2020-11-12 23:21:53.081
-6,0,-1,-14,-8,-21,-28,-1,2020-11-12 23:21:53.087
-6,0,-1,-14,-8,-21,-28,-1,2020-11-12 23:21:53.094
2,7,-13,-13,16,13,4,16,2020-11-12 23:21:53.100
2,7,-13,-13,16,13,4,16,2020-11-12 23:21:53.106
5,-6,2,-19,-11,-3,-1,11,2020-11-12 23:21:53.113
-4,-2,6,-17,10,6,4,13,2020-11-12 23:21:53.118
-4,-2,6,-17,10,6,4,13,2020-11-12 23:21:53.125
-4,-2,6,-17,10,6,4,13,2020-11-12 23:21:53.130
4,-3,-6,6,2,3,-11,2,2020-11-12 23:21:53.136
4,-3,-6,6,2,3,-11,2,2020-11-12 23:21:53.143
21,9,3,-27,-7,14,26,11,2020-11-12 23:21:53.150
-7,-3,1,9,-4,-8,-21,-5,2020-11-12 23:21:53.155
-7,-3,1,9,-4,-8,-21,-5,2020-11-12 23:21:53.163
-1,-7,-11,-21,-4,-9,-19,-8,2020-11-12 23:21:53.169
-20,-12,-11,-22,-12,0,-1,-17,2020-11-12 23:21:53.176
0,4,10,6,3,8,13,12,2020-11-12 23:21:53.182
0,4,10,6,3,8,13,12,2020-11-12 23:21:53.188
-15,-7,4,-5,-7,-5,4,0,2020-11-12 23:21:53.195
-15,-7,4,-5,-7,-5,4,0,2020-11-12 23:21:53.201
-3,-3,1,21,3,3,-2,5,2020-11-12 23:21:53.208
-3,-3,1,21,3,3,-2,5,2020-11-12 23:21:53.214
-10,-9,-1,22,5,11,-7,-22,2020-11-12 23:21:53.220
-10,-9,-1,22,5,11,-7,-22,2020-11-12 23:21:53.227
1,-1,-3,-6,-7,-7,-1,-9,2020-11-12 23:21:53.233
-5,-6,-7,-4,2,-12,-15,-18,2020-11-12 23:21:53.239
-5,-6,-7,-4,2,-12,-15,-18,2020-11-12 23:21:53.246
-5,-6,-7,-4,2,-12,-15,-18,2020-11-12 23:21:53.250
-3,-2,2,6,-4,-5,5,2,2020-11-12 23:21:53.256
10,2,-8,-7,6,1,4,-2,2020-11-12 23:21:53.264
10,2,-8,-7,6,1,4,-2,2020-11-12 23:21:53.270
36,16,2,-19,-2,-5,18,31,2020-11-12 23:21:53.276
36,16,2,-19,-2,-5,18,31,2020-11-12 23:21:53.282
36,16,2,-19,-2,-5,18,31,2020-11-12 23:21:53.288
-5,-3,-3,4,-3,0,-1,-11,2020-11-12 23:21:53.295
-4,-4,6,5,12,5,1,-5,2020-11-12 23:21:53.301
-4,-4,6,5,12,5,1,-5,2020-11-12 23:21:53.308
3,-4,-5,7,27,16,-3,7,2020-11-12 23:21:53.313
3,-4,-5,7,27,16,-3,7,2020-11-12 23:21:53.319
0,0,0,-3,-17,-10,-3,-5,2020-11-12 23:21:53.326
7,-2,-3,1,6,9,2,8,2020-11-12 23:21:53.332
8,9,4,6,-41,-25,9,-4,2020-11-12 23:21:53.339
8,9,4,6,-41,-25,9,-4,2020-11-12 23:21:53.346
-12,-4,-1,-4,-6,-14,-27,-13,2020-11-12 23:21:53.354
4,2,-2,-1,13,11,6,5,2020-11-12 23:21:53.360
4,2,-2,-1,13,11,6,5,2020-11-12 23:21:53.367
2,2,5,-4,-8,-2,11,-6,2020-11-12 23:21:53.375
-2,-4,-6,2,25,7,1,4,2020-11-12 23:21:53.381
-2,-4,-6,2,25,7,1,4,2020-11-12 23:21:53.388
-2,-4,-6,2,25,7,1,4,2020-11-12 23:21:53.394
-5,-2,-2,-3,-20,-14,2,-9,2020-11-12 23:21:53.400
-5,-2,-2,-3,-20,-14,2,-9,2020-11-12 23:21:53.406
5,2,2,-5,-19,-21,12,26,2020-11-12 23:21:53.413
-6,-4,-2,-4,-9,-10,6,-4,2020-11-12 23:21:53.419
-6,-4,-2,-4,-9,-10,6,-4,2020-11-12 23:21:53.425
-6,-4,-2,-4,-9,-10,6,-4,2020-11-12 23:21:53.431
-6,-4,-2,-4,-9,-10,6,-4,2020-11-12 23:21:53.437
-2,-3,-3,2,2,41,-5,-2,2020-11-12 23:21:53.445
-2,-3,-3,2,2,41,-5,-2,2020-11-12 23:21:53.451
1,1,-1,1,1,0,-11,-2,2020-11-12 23:21:53.457
1,1,-1,1,1,0,-11,-2,2020-11-12 23:21:53.464
-1,0,0,-1,1,-7,4,-5,2020-11-12 23:21:53.470
-1,0,0,-1,1,-7,4,-5,2020-11-12 23:21:53.489
-4,-2,1,-1,-3,-14,-2,-6,2020-11-12 23:21:53.495
-2,-4,-4,-2,2,-12,-12,-3,2020-11-12 23:21:53.501
-2,-4,-4,-2,2,-12,-12,-3,2020-11-12 23:21:53.507
-2,-4,-4,-2,2,-12,-12,-3,2020-11-12 23:21:53.514
5,7,5,4,-3,-2,10,15,2020-11-12 23:21:53.519
5,7,5,4,-3,-2,10,15,2020-11-12 23:21:53.526
-1,-4,-7,-3,-5,-5,1,-9,2020-11-12 23:21:53.532
-3,-6,-12,-7,6,2,-4,-4,2020-11-12 23:21:53.538
-3,-6,-12,-7,6,2,-4,-4,2020-11-12 23:21:53.545
-3,-6,-12,-7,6,2,-4,-4,2020-11-12 23:21:53.550
4,5,5,14,14,-3,17,6,2020-11-12 23:21:53.556
7,14,15,3,38,-15,-17,6,2020-11-12 23:21:53.564
7,14,15,3,38,-15,-17,6,2020-11-12 23:21:53.570
5,18,16,-5,54,16,33,14,2020-11-12 23:21:53.577
5,18,16,-5,54,16,33,14,2020-11-12 23:21:53.582
5,18,16,-5,54,16,33,14,2020-11-12 23:21:53.589
-6,-34,-16,2,-15,-9,-16,-17,2020-11-12 23:21:53.596
10,4,6,14,-7,8,27,10,2020-11-12 23:21:53.601
10,4,6,14,-7,8,27,10,2020-11-12 23:21:53.607
-4,10,2,16,-53,17,11,-7,2020-11-12 23:21:53.614
-5,-17,-15,-11,-29,-6,-18,-11,2020-11-12 23:21:53.619
-5,-17,-15,-11,-29,-6,-18,-11,2020-11-12 23:21:53.626
-5,-17,-15,-11,-29,-6,-18,-11,2020-11-12 23:21:53.632
-9,-12,-8,-12,-17,21,24,-7,2020-11-12 23:21:53.638
-9,-12,-8,-12,-17,21,24,-7,2020-11-12 23:21:53.645
5,27,8,-6,-17,3,-7,4,2020-11-12 23:21:53.651
2,21,8,0,0,-3,-18,-1,2020-11-12 23:21:53.657
2,21,8,0,0,-3,-18,-1,2020-11-12 23:21:53.663
2,21,8,0,0,-3,-18,-1,2020-11-12 23:21:53.669
-7,-7,-3,-5,-6,-1,61,-8,2020-11-12 23:21:53.676
8,-10,-7,-1,9,-7,17,-2,2020-11-12 23:21:53.682
8,-10,-7,-1,9,-7,17,-2,2020-11-12 23:21:53.688
8,-10,-7,-1,9,-7,17,-2,2020-11-12 23:21:53.694
-8,-15,-3,6,-16,20,47,2,2020-11-12 23:21:53.700
-8,-15,-3,6,-16,20,47,2,2020-11-12 23:21:53.706
-8,-15,-3,6,-16,20,47,2,2020-11-12 23:21:53.712
14,5,10,-5,-40,10,13,-3,2020-11-12 23:21:53.718
-9,-18,-19,13,-3,-4,-9,-3,2020-11-12 23:21:53.724
-9,-18,-19,13,-3,-4,-9,-3,2020-11-12 23:21:53.731
-4,-14,-12,-5,-14,-19,-16,-3,2020-11-12 23:21:53.736
-5,-12,11,9,-13,-1,-14,-4,2020-11-12 23:21:53.744
-5,-12,11,9,-13,-1,-14,-4,2020-11-12 23:21:53.749
-9,-1,1,-26,-8,-45,-50,-15,2020-11-12 23:21:53.755
0,19,12,-3,-2,-1,-9,0,2020-11-12 23:21:53.761
0,19,12,-3,-2,-1,-9,0,2020-11-12 23:21:53.767
-18,-18,-7,8,0,-33,-34,-17,2020-11-12 23:21:53.774
0,-2,-8,-12,8,-9,10,-8,2020-11-12 23:21:53.781
0,-2,-8,-12,8,-9,10,-8,2020-11-12 23:21:53.787
93,43,16,-5,22,42,43,57,2020-11-12 23:21:53.793
93,43,16,-5,22,42,43,57,2020-11-12 23:21:53.798
-14,-14,-16,-16,-7,18,-42,-14,2020-11-12 23:21:53.804
-14,-14,-16,-16,-7,18,-42,-14,2020-11-12 23:21:53.811
19,57,23,1,25,3,14,1,2020-11-12 23:21:53.817
19,57,23,1,25,3,14,1,2020-11-12 23:21:53.823
12,-6,-9,-10,-8,-1,2,19,2020-11-12 23:21:53.830
-24,-39,-13,2,2,-2,1,-13,2020-11-12 23:21:53.836
-29,-33,-12,1,-2,-42,-8,-17,2020-11-12 23:21:53.842
-29,-33,-12,1,-2,-42,-8,-17,2020-11-12 23:21:53.848
1,-8,-9,2,-2,9,15,3,2020-11-12 23:21:53.855
-3,-19,-12,-5,1,-23,-100,-17,2020-11-12 23:21:53.861
-3,-19,-12,-5,1,-23,-100,-17,2020-11-12 23:21:53.867
-3,-19,-12,-5,1,-23,-100,-17,2020-11-12 23:21:53.873
7,1,6,4,6,11,38,26,2020-11-12 23:21:53.880
7,1,6,4,6,11,38,26,2020-11-12 23:21:53.886
-6,26,17,1,-5,4,-10,-8,2020-11-12 23:21:53.892
14,-3,0,4,4,6,13,23,2020-11-12 23:21:53.898
14,-3,0,4,4,6,13,23,2020-11-12 23:21:53.905
14,-3,0,4,4,6,13,23,2020-11-12 23:21:53.912
8,43,16,-2,1,16,2,4,2020-11-12 23:21:53.918
-3,0,0,0,-10,8,-6,-10,2020-11-12 23:21:53.924
-3,0,0,0,-10,8,-6,-10,2020-11-12 23:21:53.931
-11,-10,2,-1,0,-8,-24,-9,2020-11-12 23:21:53.937
-11,-10,2,-1,0,-8,-24,-9,2020-11-12 23:21:53.944
-14,-9,-3,5,7,23,27,26,2020-11-12 23:21:53.950
-14,-9,-3,5,7,23,27,26,2020-11-12 23:21:53.955
4,0,-7,-4,-6,19,7,-19,2020-11-12 23:21:53.962
4,0,-7,-4,-6,19,7,-19,2020-11-12 23:21:53.968
-4,-5,-7,-6,-16,-22,-31,-31,2020-11-12 23:21:53.975
-16,-18,-7,-10,-10,-33,-7,-10,2020-11-12 23:21:53.981
-16,-18,-7,-10,-10,-33,-7,-10,2020-11-12 23:21:53.987
-16,-18,-7,-10,-10,-33,-7,-10,2020-11-12 23:21:53.993
-8,-10,-2,5,4,-5,-8,-7,2020-11-12 23:21:54.000
-8,-10,-2,5,4,-5,-8,-7,2020-11-12 23:21:54.006
16,27,5,-3,-3,-42,-30,10,2020-11-12 23:21:54.012
0,0,-3,2,6,14,5,1,2020-11-12 23:21:54.019
0,0,-3,2,6,14,5,1,2020-11-12 23:21:54.026
0,0,-3,2,6,14,5,1,2020-11-12 23:21:54.032
-5,-37,-12,1,19,11,0,-6,2020-11-12 23:21:54.038
0,21,17,7,4,-4,19,7,2020-11-12 23:21:54.045
0,21,17,7,4,-4,19,7,2020-11-12 23:21:54.051
-11,-11,-11,-4,-4,-30,-43,-14,2020-11-12 23:21:54.057
-11,-11,-11,-4,-4,-30,-43,-14,2020-11-12 23:21:54.064
6,6,9,0,4,2,11,23,2020-11-12 23:21:54.070
6,6,9,0,4,2,11,23,2020-11-12 23:21:54.077
-1,-1,-7,-7,-1,10,11,0,2020-11-12 23:21:54.083
-1,-1,-7,-7,-1,10,11,0,2020-11-12 23:21:54.089
-19,-7,-3,-9,-22,-11,-31,-27,2020-11-12 23:21:54.097
20,33,23,2,10,19,25,22,2020-11-12 23:21:54.102
20,33,23,2,10,19,25,22,2020-11-12 23:21:54.109
20,33,23,2,10,19,25,22,2020-11-12 23:21:54.115
8,14,4,5,5,5,12,4,2020-11-12 23:21:54.121
8,14,4,5,5,5,12,4,2020-11-12 23:21:54.127
8,16,0,1,-5,-24,-7,-3,2020-11-12 23:21:54.133
-6,-20,-16,-5,22,-38,-17,-4,2020-11-12 23:21:54.139
-6,-20,-16,-5,22,-38,-17,-4,2020-11-12 23:21:54.147
6,7,-3,0,-8,4,16,10,2020-11-12 23:21:54.152
6,7,-3,0,-8,4,16,10,2020-11-12 23:21:54.159
15,31,6,-6,-12,-9,8,19,2020-11-12 23:21:54.165
15,31,6,-6,-12,-9,8,19,2020-11-12 23:21:54.170
-22,-21,-5,-8,-13,-1,-2,-15,2020-11-12 23:21:54.177
-8,-15,-7,3,0,11,6,-9,2020-11-12 23:21:54.183
12,13,20,9,6,22,19,15,2020-11-12 23:21:54.189
12,13,20,9,6,22,19,15,2020-11-12 23:21:54.195
8,6,5,8,18,6,15,11,2020-11-12 23:21:54.201
8,6,5,8,18,6,15,11,2020-11-12 23:21:54.208
-25,-43,-19,-5,4,-11,-14,-21,2020-11-12 23:21:54.214
-4,-2,8,-5,-30,-5,-6,5,2020-11-12 23:21:54.220
-4,-2,8,-5,-30,-5,-6,5,2020-11-12 23:21:54.227
-4,-2,8,-5,-30,-5,-6,5,2020-11-12 23:21:54.233
3,9,1,4,-2,34,25,5,2020-11-12 23:21:54.239
3,9,1,4,-2,34,25,5,2020-11-12 23:21:54.247
-11,-5,-10,-5,-7,-25,-46,-26,2020-11-12 23:21:54.252
12,11,0,-1,-2,-10,6,3,2020-11-12 23:21:54.260
12,11,0,-1,-2,-10,6,3,2020-11-12 23:21:54.266
-4,-1,-6,-4,3,-29,-27,-6,2020-11-12 23:21:54.272
-4,-1,-6,-4,3,-29,-27,-6,2020-11-12 23:21:54.279
8,-3,-9,-3,-3,3,3,16,2020-11-12 23:21:54.285
8,-3,-9,-3,-3,3,3,16,2020-11-12 23:21:54.297
-4,14,2,-5,-7,-50,-15,-9,2020-11-12 23:21:54.303
-4,14,2,-5,-7,-50,-15,-9,2020-11-12 23:21:54.317
-2,-6,0,-4,-14,-53,-110,-26,2020-11-12 23:21:54.328
1,-6,3,-1,-18,0,-2,1,2020-11-12 23:21:54.338
8,6,7,11,21,46,28,7,2020-11-12 23:21:54.349
-4,-3,-5,-2,-2,-9,-14,-8,2020-11-12 23:21:54.357
12,16,7,0,5,11,-3,-4,2020-11-12 23:21:54.365
12,16,7,0,5,11,-3,-4,2020-11-12 23:21:54.372
-9,-7,-6,0,1,11,30,-4,2020-11-12 23:21:54.380
-9,-7,-6,0,1,11,30,-4,2020-11-12 23:21:54.387
-9,-23,-11,2,1,-2,-13,-5,2020-11-12 23:21:54.394
-9,-23,-11,2,1,-2,-13,-5,2020-11-12 23:21:54.415
-5,-2,0,-5,-6,5,11,-7,2020-11-12 23:21:54.420
-4,-9,-2,-4,-8,2,17,-7,2020-11-12 23:21:54.427
-4,-9,-2,-4,-8,2,17,-7,2020-11-12 23:21:54.433
-11,-5,-6,-6,-25,-6,-40,-12,2020-11-12 23:21:54.439
-11,-5,-6,-6,-25,-6,-40,-12,2020-11-12 23:21:54.446
-1,-4,-2,-2,-4,-4,-5,-10,2020-11-12 23:21:54.452
-9,8,2,2,6,14,-1,-15,2020-11-12 23:21:54.458
-5,-7,-3,-1,5,-10,5,-2,2020-11-12 23:21:54.465
-5,-7,-3,-1,5,-10,5,-2,2020-11-12 23:21:54.471
-2,-6,-4,-3,21,-20,4,2,2020-11-12 23:21:54.477
8,5,1,-5,-21,13,18,11,2020-11-12 23:21:54.483
8,5,1,-5,-21,13,18,11,2020-11-12 23:21:54.489
8,5,1,-5,-21,13,18,11,2020-11-12 23:21:54.496
1,0,5,3,4,-18,-14,-5,2020-11-12 23:21:54.502
1,0,5,3,4,-18,-14,-5,2020-11-12 23:21:54.508
14,22,0,3,-8,-4,6,13,2020-11-12 23:21:54.515
5,-5,-12,-8,7,8,8,2,2020-11-12 23:21:54.521
5,-5,-12,-8,7,8,8,2,2020-11-12 23:21:54.527
5,-5,-12,-8,7,8,8,2,2020-11-12 23:21:54.533
-5,-14,2,-3,-16,3,18,-3,2020-11-12 23:21:54.539
-3,27,7,6,16,-5,-1,-3,2020-11-12 23:21:54.545
-3,27,7,6,16,-5,-1,-3,2020-11-12 23:21:54.550
-3,27,7,6,16,-5,-1,-3,2020-11-12 23:21:54.556
-3,27,7,6,16,-5,-1,-3,2020-11-12 23:21:54.563
-13,-21,12,-5,-19,4,-9,-16,2020-11-12 23:21:54.569
-4,-12,-11,-1,-5,7,-7,-14,2020-11-12 23:21:54.576
-17,-6,-25,-1,0,3,12,-14,2020-11-12 23:21:54.583
-17,-6,-25,-1,0,3,12,-14,2020-11-12 23:21:54.588
7,8,14,-6,0,5,16,9,2020-11-12 23:21:54.595
7,8,14,-6,0,5,16,9,2020-11-12 23:21:54.601
0,-68,-17,10,19,15,-12,-2,2020-11-12 23:21:54.608
-3,0,1,1,3,0,0,-1,2020-11-12 23:28:53.095
-3,0,1,1,3,0,0,-1,2020-11-12 23:28:53.099
1,0,-2,-1,-1,-2,-1,-2,2020-11-12 23:28:53.103
1,0,-2,-1,-1,-2,-1,-2,2020-11-12 23:28:53.108
1,0,-2,-1,-1,-2,-1,-2,2020-11-12 23:28:53.112
-5,-4,-5,-5,-2,-5,-2,-1,2020-11-12 23:28:53.116
-5,-4,-5,-5,-2,-5,-2,-1,2020-11-12 23:28:53.123
0,-3,-2,-2,-1,0,-3,-1,2020-11-12 23:28:53.128
0,-3,-2,-2,-1,0,-3,-1,2020-11-12 23:28:53.135
1,1,1,0,-1,0,-2,0,2020-11-12 23:28:53.141
1,1,1,0,-1,0,-2,0,2020-11-12 23:28:53.147
-4,-3,-3,-2,-3,-2,-2,-3,2020-11-12 23:28:53.152
-2,0,0,2,1,4,1,3,2020-11-12 23:28:53.158
1,0,-1,-2,-2,-2,-1,0,2020-11-12 23:28:53.164
1,0,-1,-2,-2,-2,-1,0,2020-11-12 23:28:53.170
1,1,1,-1,-1,-2,1,-2,2020-11-12 23:28:53.176
1,1,1,-1,-1,-2,1,-2,2020-11-12 23:28:53.182
1,-1,1,3,2,1,0,2,2020-11-12 23:28:53.187
1,-1,1,3,2,1,0,2,2020-11-12 23:28:53.193
1,-1,1,3,2,1,0,2,2020-11-12 23:28:53.199
-4,-6,-3,-1,-1,-1,-1,-2,2020-11-12 23:28:53.206
-4,-6,-3,-1,-1,-1,-1,-2,2020-11-12 23:28:53.211
0,-2,0,2,0,2,-2,-1,2020-11-12 23:28:53.217
-2,-1,-5,-4,1,2,1,-1,2020-11-12 23:28:53.224
-2,-1,-5,-4,1,2,1,-1,2020-11-12 23:28:53.229
-2,-1,-5,-4,1,2,1,-1,2020-11-12 23:28:53.235
-1,-2,0,0,0,-2,0,0,2020-11-12 23:28:53.243
-2,-2,1,-1,2,-3,-3,-4,2020-11-12 23:28:53.248
-2,-2,1,-1,2,-3,-3,-4,2020-11-12 23:28:53.254
-2,1,1,1,-2,1,-2,0,2020-11-12 23:28:53.260
3,3,1,-1,-1,-3,0,2,2020-11-12 23:28:53.266
3,3,1,-1,-1,-3,0,2,2020-11-12 23:28:53.273
-2,2,-1,1,2,0,0,2,2020-11-12 23:28:53.278
-4,-2,-1,0,-2,1,-1,-2,2020-11-12 23:28:53.284
-4,-2,-1,0,-2,1,-1,-2,2020-11-12 23:28:53.290
-2,-4,1,-1,1,-1,-2,-2,2020-11-12 23:28:53.296
-2,-4,1,-1,1,-1,-2,-2,2020-11-12 23:28:53.301
1,-1,0,1,1,2,2,2,2020-11-12 23:28:53.307
1,-1,0,1,1,2,2,2,2020-11-12 23:28:53.313
-3,-4,-6,-2,-2,-2,0,-4,2020-11-12 23:28:53.319
-1,-1,-1,0,-2,-2,-2,-4,2020-11-12 23:28:53.325
-1,-1,-1,0,-2,-2,-2,-4,2020-11-12 23:28:53.330
3,1,2,2,-1,1,0,1,2020-11-12 23:28:53.336
-2,2,1,1,-1,-2,3,4,2020-11-12 23:28:53.343
-2,2,1,1,-1,-2,3,4,2020-11-12 23:28:53.348
-2,2,1,1,-1,-2,3,4,2020-11-12 23:28:53.355
-3,0,-1,0,-1,1,0,-2,2020-11-12 23:28:53.362
3,2,-1,1,-1,-3,-1,-2,2020-11-12 23:28:53.368
3,2,-1,1,-1,-3,-1,-2,2020-11-12 23:28:53.375
-1,-1,-3,-2,0,-4,0,0,2020-11-12 23:28:53.382
-2,-2,-2,1,2,-3,-2,0,2020-11-12 23:28:53.389
-2,-1,-1,-2,-1,0,-1,-3,2020-11-12 23:28:53.395
-2,-1,-1,-2,-1,0,-1,-3,2020-11-12 23:28:53.400
-3,-2,-3,-2,-4,-2,-1,-2,2020-11-12 23:28:53.407
-3,-2,-3,-2,-4,-2,-1,-2,2020-11-12 23:28:53.413
7,5,0,-3,0,-3,-1,2,2020-11-12 23:28:53.418
2,3,2,0,0,-2,0,1,2020-11-12 23:28:53.425
2,3,2,0,0,-2,0,1,2020-11-12 23:28:53.430
2,3,2,0,0,-2,0,1,2020-11-12 23:28:53.436
0,0,-1,-1,-2,-3,0,0,2020-11-12 23:28:53.443
-2,-4,-4,-6,-1,-2,-3,-1,2020-11-12 23:28:53.449
3,1,-2,0,0,-3,0,2,2020-11-12 23:28:53.456
-1,-3,-2,2,-1,-2,-2,-2,2020-11-12 23:28:53.462
-1,-3,-2,2,-1,-2,-2,-2,2020-11-12 23:28:53.468
-1,-3,-2,2,-1,-2,-2,-2,2020-11-12 23:28:53.474
-2,-2,0,-2,-3,-1,-2,-2,2020-11-12 23:28:53.479
0,-1,0,-1,0,0,2,1,2020-11-12 23:28:53.485
0,-1,0,-1,0,0,2,1,2020-11-12 23:28:53.492
0,-1,0,-1,0,0,2,1,2020-11-12 23:28:53.498
-4,-3,-1,1,0,-2,-1,-2,2020-11-12 23:28:53.515
-2,-2,4,-1,0,1,0,-1,2020-11-12 23:28:53.521
-1,-1,-2,-2,-1,0,1,0,2020-11-12 23:28:53.527
-1,-1,-2,-2,-1,0,1,0,2020-11-12 23:28:53.533
-2,-2,0,-1,0,3,0,0,2020-11-12 23:28:53.540
2,0,-5,-5,-2,-5,-3,-3,2020-11-12 23:28:53.546
2,0,-5,-5,-2,-5,-3,-3,2020-11-12 23:28:53.551
2,0,-5,-5,-2,-5,-3,-3,2020-11-12 23:28:53.557
-3,-2,-3,-2,-3,-2,-3,-4,2020-11-12 23:28:53.563
-3,-2,-3,-2,-3,-2,-3,-4,2020-11-12 23:28:53.569
-2,0,6,1,1,1,-2,-1,2020-11-12 23:28:53.575
-2,0,6,1,1,1,-2,-1,2020-11-12 23:28:53.581
-4,-1,-2,0,1,-2,0,-2,2020-11-12 23:28:53.587
-4,-1,-2,0,1,-2,0,-2,2020-11-12 23:28:53.593
1,0,1,0,-1,0,0,-1,2020-11-12 23:28:53.599
0,0,-3,1,-2,-1,2,1,2020-11-12 23:28:53.605
0,0,-3,1,-2,-1,2,1,2020-11-12 23:28:53.611
0,0,-3,1,-2,-1,2,1,2020-11-12 23:28:53.616
-4,-4,-6,-3,-3,-1,-1,-4,2020-11-12 23:28:53.623
2,-1,1,-1,0,-1,-1,0,2020-11-12 23:28:53.628
2,-1,1,-1,0,-1,-1,0,2020-11-12 23:28:53.634
2,-1,1,-1,0,-1,-1,0,2020-11-12 23:28:53.640
-2,-2,-2,1,-1,1,-2,-3,2020-11-12 23:28:53.646
-2,-2,-2,1,-1,1,-2,-3,2020-11-12 23:28:53.652
-1,-1,1,2,-1,0,2,2,2020-11-12 23:28:53.659
-1,-1,-2,0,-2,0,1,2,2020-11-12 23:28:53.665
-1,-1,-2,0,-2,0,1,2,2020-11-12 23:28:53.670
-1,-1,-2,0,-2,0,1,2,2020-11-12 23:28:53.677
-1,0,7,-1,0,1,0,-1,2020-11-12 23:28:53.683
-2,-1,-3,0,-1,-1,-1,-3,2020-11-12 23:28:53.689
-2,-1,-3,0,-1,-1,-1,-3,2020-11-12 23:28:53.694
-2,-1,-3,0,-1,-1,-1,-3,2020-11-12 23:28:53.700
0,1,-2,-1,0,-2,0,0,2020-11-12 23:28:53.707
0,1,-2,-1,0,-2,0,0,2020-11-12 23:28:53.713
0,0,-2,2,1,1,0,-2,2020-11-12 23:28:53.719
-1,-2,-2,-2,-3,0,-1,-1,2020-11-12 23:28:53.725
-1,-2,-2,-2,-3,0,-1,-1,2020-11-12 23:28:53.731
-1,-2,-2,-2,-3,0,-1,-1,2020-11-12 23:28:53.737
1,0,-1,-1,-2,-2,-3,0,2020-11-12 23:28:53.744
2,1,0,-1,0,2,-2,0,2020-11-12 23:28:53.750
2,1,0,-1,0,2,-2,0,2020-11-12 23:28:53.756
-2,-1,-3,-4,-1,0,0,-1,2020-11-12 23:28:53.762
5,3,1,1,-1,-4,1,2,2020-11-12 23:28:53.767
5,3,1,1,-1,-4,1,2,2020-11-12 23:28:53.774
-3,-2,-2,-7,0,0,1,0,2020-11-12 23:28:53.780
-1,0,0,2,1,-2,1,2,2020-11-12 23:28:53.786
-1,0,0,2,1,-2,1,2,2020-11-12 23:28:53.792
-1,0,-1,-3,0,-2,-2,-1,2020-11-12 23:28:53.798
0,-3,-5,0,-1,-1,0,-1,2020-11-12 23:28:53.803
-6,-3,0,-1,-2,-1,-2,-4,2020-11-12 23:28:53.810
-6,-3,0,-1,-2,-1,-2,-4,2020-11-12 23:28:53.816
2,1,2,0,1,-1,-1,0,2020-11-12 23:28:53.823
1,1,-1,2,1,0,0,0,2020-11-12 23:28:53.828
1,1,-1,2,1,0,0,0,2020-11-12 23:28:53.834
-4,-4,-2,5,-1,1,-1,-2,2020-11-12 23:28:53.840
-4,-4,-2,5,-1,1,-1,-2,2020-11-12 23:28:53.846
5,3,3,4,0,-3,-1,1,2020-11-12 23:28:53.852
-2,-3,0,-3,-1,-3,-2,-3,2020-11-12 23:28:53.858
0,-2,-2,-3,0,-1,0,-1,2020-11-12 23:28:53.864
1,2,6,-3,-2,2,-1,-1,2020-11-12 23:28:53.870
1,2,6,-3,-2,2,-1,-1,2020-11-12 23:28:53.876
-2,0,6,6,-2,-1,0,0,2020-11-12 23:28:53.882
5,1,-7,-2,0,-2,3,4,2020-11-12 23:28:53.887
5,1,-7,-2,0,-2,3,4,2020-11-12 23:28:53.894
0,2,2,0,0,-1,0,-2,2020-11-12 23:28:53.899
-2,-2,-2,-2,-1,-2,0,1,2020-11-12 23:28:53.906
-2,-2,-2,-2,-1,-2,0,1,2020-11-12 23:28:53.912
-1,-1,-1,-1,-2,-3,0,0,2020-11-12 23:28:53.918
-4,-3,-1,-1,0,-2,-3,0,2020-11-12 23:28:53.924
-2,-1,5,0,0,0,-2,-3,2020-11-12 23:28:53.930
-2,-1,5,0,0,0,-2,-3,2020-11-12 23:28:53.937
5,2,0,-3,0,-2,0,3,2020-11-12 23:28:53.943
-4,-1,-2,0,0,-3,1,1,2020-11-12 23:28:53.949
-4,-1,-2,0,0,-3,1,1,2020-11-12 23:28:53.955
1,0,-3,-2,-1,0,-2,-2,2020-11-12 23:28:53.960
1,1,2,2,-3,-1,-3,-2,2020-11-12 23:28:53.966
1,1,2,2,-3,-1,-3,-2,2020-11-12 23:28:53.973
0,0,-2,5,0,-2,-1,-1,2020-11-12 23:28:53.979
0,0,-2,5,0,-2,-1,-1,2020-11-12 23:28:53.985
-4,-3,0,0,1,-1,0,-1,2020-11-12 23:28:53.991
-4,-3,0,0,1,-1,0,-1,2020-11-12 23:28:53.997
-1,-1,1,-2,-1,-1,-1,0,2020-11-12 23:28:54.003
4,2,-2,-2,1,-1,0,1,2020-11-12 23:28:54.009
4,2,-2,-2,1,-1,0,1,2020-11-12 23:28:54.015
-1,-2,-4,-2,0,0,1,0,2020-11-12 23:28:54.020
-2,-4,-2,-1,0,-2,-1,1,2020-11-12 23:28:54.027
-2,-4,-2,-1,0,-2,-1,1,2020-11-12 23:28:54.033
0,2,-4,-1,-3,-1,-2,-3,2020-11-12 23:28:54.039
0,2,-4,-1,-3,-1,-2,-3,2020-11-12 23:28:54.045
0,-4,-6,-8,0,1,-2,0,2020-11-12 23:28:54.051
0,-4,-6,-8,0,1,-2,0,2020-11-12 23:28:54.058
3,5,-1,-3,-1,-1,-1,-1,2020-11-12 23:28:54.065
3,5,-1,-3,-1,-1,-1,-1,2020-11-12 23:28:54.070
-1,1,10,-2,-2,-1,-1,-1,2020-11-12 23:28:54.076
-1,1,10,-2,-2,-1,-1,-1,2020-11-12 23:28:54.083
1,0,-3,0,-2,-5,-2,-2,2020-11-12 23:28:54.090
1,0,-3,0,-2,-5,-2,-2,2020-11-12 23:28:54.096
2,1,-4,1,-1,-3,-1,1,2020-11-12 23:28:54.102
-2,-1,0,0,-3,-2,-4,-4,2020-11-12 23:28:54.108
-2,-1,0,0,-3,-2,-4,-4,2020-11-12 23:28:54.115
-2,-1,0,0,-3,-2,-4,-4,2020-11-12 23:28:54.120
-2,-4,1,5,-2,0,1,-1,2020-11-12 23:28:54.127
0,0,-1,6,0,0,2,-1,2020-11-12 23:28:54.133
-3,-3,-2,7,1,-1,0,0,2020-11-12 23:28:54.139
1,0,-5,-12,-2,-2,-1,1,2020-11-12 23:28:54.145
-2,-3,-2,1,-4,-3,-1,-3,2020-11-12 23:28:54.151
-2,-3,-2,1,-4,-3,-1,-3,2020-11-12 23:28:54.157
1,0,1,-1,0,-1,-2,1,2020-11-12 23:28:54.163
-1,-1,8,-1,2,1,0,-2,2020-11-12 23:28:54.169
-1,-1,8,-1,2,1,0,-2,2020-11-12 23:28:54.175
-1,-1,8,-1,2,1,0,-2,2020-11-12 23:28:54.181
-2,-2,-10,0,-1,-6,-2,-2,2020-11-12 23:28:54.199
1,0,3,-5,-2,-1,2,4,2020-11-12 23:28:54.205
1,0,3,-5,-2,-1,2,4,2020-11-12 23:28:54.211
1,0,3,-5,-2,-1,2,4,2020-11-12 23:28:54.216
0,0,-1,-4,-1,-4,0,-1,2020-11-12 23:28:54.223
1,0,1,-6,1,4,0,1,2020-11-12 23:28:54.228
1,0,1,-6,1,4,0,1,2020-11-12 23:28:54.234
1,0,1,-6,1,4,0,1,2020-11-12 23:28:54.240
-4,0,6,1,-1,2,-1,-2,2020-11-12 23:28:54.246
-4,0,6,1,-1,2,-1,-2,2020-11-12 23:28:54.251
-2,-4,-3,-2,-1,1,-2,-2,2020-11-12 23:28:54.258
-2,-4,-3,-2,-1,1,-2,-2,2020-11-12 23:28:54.264
-1,2,-4,-3,2,-3,1,-1,2020-11-12 23:28:54.270
-1,2,-4,-3,2,-3,1,-1,2020-11-12 23:28:54.276
1,-1,-4,-3,-2,-1,-1,0,2020-11-12 23:28:54.282
-2,-7,-7,-3,-2,-1,0,0,2020-11-12 23:28:54.288
-2,-7,-7,-3,-2,-1,0,0,2020-11-12 23:28:54.293
-2,-7,-7,-3,-2,-1,0,0,2020-11-12 23:28:54.299
-1,-1,-6,-11,0,0,-1,-2,2020-11-12 23:28:54.305
1,-2,2,2,-2,-3,-1,0,2020-11-12 23:28:54.311
2,2,5,-2,-1,0,1,2,2020-11-12 23:28:54.317
2,2,5,-2,-1,0,1,2,2020-11-12 23:28:54.323
-1,-1,-1,7,0,-1,-1,0,2020-11-12 23:28:54.329
-1,-1,-1,7,0,-1,-1,0,2020-11-12 23:28:54.335
1,1,-3,-3,2,0,0,1,2020-11-12 23:28:54.342
