Raw EMG - Pod01,Raw EMG - Pod02,Raw EMG - Pod03,Raw EMG - Pod04,Raw EMG - Pod05,Raw EMG - Pod06,Raw EMG - Pod07,Raw EMG - Pod08,Timestamp
-5,-6,3,4,-1,5,-37,22,2020-11-12 21:45:56.372
-44,-13,-8,-5,-4,8,-10,-24,2020-11-12 21:45:56.522
10,7,9,8,19,9,4,14,2020-11-12 21:45:56.532
8,-6,-1,-4,-26,-5,-1,0,2020-11-12 21:45:56.546
-8,-1,-2,0,7,-6,-6,-7,2020-11-12 21:45:56.551
-8,-1,-2,0,7,-6,-6,-7,2020-11-12 21:45:56.555
-1,4,3,-1,-7,-11,3,6,2020-11-12 21:45:56.562
-1,4,3,-1,-7,-11,3,6,2020-11-12 21:45:56.567
-3,-2,-2,1,-1,-3,-4,-6,2020-11-12 21:45:56.573
1,-1,-3,-3,-2,-9,-2,1,2020-11-12 21:45:56.581
-7,-3,-2,1,6,0,-4,1,2020-11-12 21:45:56.586
-7,-3,-2,1,6,0,-4,1,2020-11-12 21:45:56.593
3,-3,-3,3,17,13,3,-3,2020-11-12 21:45:56.599
3,-3,-3,3,17,13,3,-3,2020-11-12 21:45:56.605
-1,-4,3,-2,-13,0,-1,7,2020-11-12 21:45:56.612
-1,-4,3,-2,-13,0,-1,7,2020-11-12 21:45:56.617
-9,-1,-1,-2,0,-6,-5,-19,2020-11-12 21:45:56.622
6,17,23,6,3,-2,2,6,2020-11-12 21:45:56.642
0,-9,-13,0,-6,-1,3,1,2020-11-12 21:45:56.648
0,-9,-13,0,-6,-1,3,1,2020-11-12 21:45:56.654
0,4,0,-3,-14,-15,-6,-3,2020-11-12 21:45:56.661
0,4,0,-3,-14,-15,-6,-3,2020-11-12 21:45:56.666
0,4,0,-3,-14,-15,-6,-3,2020-11-12 21:45:56.672
0,2,-3,-3,1,6,3,-1,2020-11-12 21:45:56.679
3,0,7,11,10,0,2,9,2020-11-12 21:45:56.685
-2,-8,-5,-3,-10,-4,-5,0,2020-11-12 21:45:56.691
-2,-8,-5,-3,-10,-4,-5,0,2020-11-12 21:45:56.697
0,-6,-4,-4,-1,9,4,11,2020-11-12 21:45:56.703
3,3,0,0,5,8,4,-5,2020-11-12 21:45:56.709
3,3,0,0,5,8,4,-5,2020-11-12 21:45:56.715
-7,-1,-2,2,8,0,-7,-11,2020-11-12 21:45:56.721
3,-2,0,1,-3,-1,-1,4,2020-11-12 21:45:56.727
3,-2,0,1,-3,-1,-1,4,2020-11-12 21:45:56.733
-1,-5,-5,-3,-4,7,6,20,2020-11-12 21:45:56.747
7,2,-4,-4,-3,-3,-4,3,2020-11-12 21:45:56.753
7,2,-4,-4,-3,-3,-4,3,2020-11-12 21:45:56.760
-12,-10,-11,-7,-4,-4,-9,-4,2020-11-12 21:45:56.765
-12,-10,-11,-7,-4,-4,-9,-4,2020-11-12 21:45:56.771
0,-7,-13,-10,-2,-1,2,-31,2020-11-12 21:45:56.777
0,-7,-13,-10,-2,-1,2,-31,2020-11-12 21:45:56.784
-3,15,12,-3,-2,7,-1,-15,2020-11-12 21:45:56.790
-3,15,12,-3,-2,7,-1,-15,2020-11-12 21:45:56.796
7,0,-21,-7,-7,-8,-1,14,2020-11-12 21:45:56.802
3,8,16,3,3,1,1,4,2020-11-12 21:45:56.808
3,8,16,3,3,1,1,4,2020-11-12 21:45:56.814
3,8,16,3,3,1,1,4,2020-11-12 21:45:56.820
5,-21,-21,-24,-3,0,4,11,2020-11-12 21:45:56.827
5,-21,-21,-24,-3,0,4,11,2020-11-12 21:45:56.833
-27,-1,-5,24,-1,3,1,-10,2020-11-12 21:45:56.838
-27,-1,-5,24,-1,3,1,-10,2020-11-12 21:45:56.845
37,82,42,12,3,-2,11,25,2020-11-12 21:45:56.851
37,82,42,12,3,-2,11,25,2020-11-12 21:45:56.856
12,15,30,-6,4,1,3,12,2020-11-12 21:45:56.863
-22,-53,-54,-4,-2,-9,-12,-37,2020-11-12 21:45:56.869
-22,-53,-54,-4,-2,-9,-12,-37,2020-11-12 21:45:56.875
-22,-53,-54,-4,-2,-9,-12,-37,2020-11-12 21:45:56.881
-5,-4,-10,-2,0,-2,-1,12,2020-11-12 21:45:56.887
-5,-4,-10,-2,0,-2,-1,12,2020-11-12 21:45:56.893
-5,4,-8,-11,0,-6,-7,-11,2020-11-12 21:45:56.898
-5,4,-8,-11,0,-6,-7,-11,2020-11-12 21:45:56.904
4,-22,-52,-19,-4,1,4,7,2020-11-12 21:45:56.910
4,-22,-52,-19,-4,1,4,7,2020-11-12 21:45:56.916
12,5,7,-9,-18,8,5,2,2020-11-12 21:45:56.922
12,5,7,-9,-18,8,5,2,2020-11-12 21:45:56.928
-16,-12,-20,17,7,-12,-1,11,2020-11-12 21:45:56.934
-16,-12,-20,17,7,-12,-1,11,2020-11-12 21:45:56.948
21,-19,8,-4,-4,4,8,30,2020-11-12 21:45:56.954
3,5,23,5,-6,-2,1,-9,2020-11-12 21:45:56.961
-15,-72,-60,-7,-5,-2,-5,-12,2020-11-12 21:45:56.966
-15,-72,-60,-7,-5,-2,-5,-12,2020-11-12 21:45:56.972
-15,-72,-60,-7,-5,-2,-5,-12,2020-11-12 21:45:56.978
-4,2,13,1,6,1,0,-8,2020-11-12 21:45:56.984
4,-7,-14,-8,7,7,-1,0,2020-11-12 21:45:56.990
4,-7,-14,-8,7,7,-1,0,2020-11-12 21:45:56.996
4,-7,-14,-8,7,7,-1,0,2020-11-12 21:45:57.001
-3,-2,10,-2,-6,3,0,-4,2020-11-12 21:45:57.009
-3,-2,10,-2,-6,3,0,-4,2020-11-12 21:45:57.014
-3,-2,10,-2,-6,3,0,-4,2020-11-12 21:45:57.020
-3,-2,10,-2,-6,3,0,-4,2020-11-12 21:45:57.026
-4,17,26,14,2,-3,-5,2,2020-11-12 21:45:57.032
-4,17,26,14,2,-3,-5,2,2020-11-12 21:45:57.037
25,11,-19,3,-4,1,5,30,2020-11-12 21:45:57.045
3,22,30,-2,-13,-17,-8,-4,2020-11-12 21:45:57.050
3,22,30,-2,-13,-17,-8,-4,2020-11-12 21:45:57.055
3,22,30,-2,-13,-17,-8,-4,2020-11-12 21:45:57.062
-11,9,20,3,4,2,-6,-24,2020-11-12 21:45:57.068
6,15,24,-4,0,6,4,9,2020-11-12 21:45:57.076
-4,-12,-2,-5,-1,-8,-3,-5,2020-11-12 21:45:57.082
-4,-12,-2,-5,-1,-8,-3,-5,2020-11-12 21:45:57.090
-4,-12,2,8,4,2,1,-8,2020-11-12 21:45:57.097
-3,-7,-1,3,-1,3,2,0,2020-11-12 21:45:57.104
8,5,-2,3,1,0,2,2,2020-11-12 21:45:57.112
8,5,-2,3,1,0,2,2,2020-11-12 21:45:57.118
-3,-9,4,19,13,-1,-1,-1,2020-11-12 21:45:57.126
8,3,3,1,-8,10,3,7,2020-11-12 21:45:57.134
-6,-15,-11,-5,-4,-13,-13,-10,2020-11-12 21:45:57.164
-2,12,14,0,6,4,3,-1,2020-11-12 21:45:57.208
-6,-6,-5,-7,-9,0,-2,-7,2020-11-12 21:45:57.248
7,2,1,1,0,7,1,3,2020-11-12 21:45:57.295
-15,-5,0,11,7,-6,-11,-16,2020-11-12 21:45:57.367
-22,-12,-6,-6,-8,-4,-8,-30,2020-11-12 21:45:57.415
13,3,-3,-1,-2,4,-3,25,2020-11-12 21:45:57.501
-30,3,3,-2,0,4,1,5,2020-11-12 21:45:57.525
3,-3,-3,0,2,4,-2,-21,2020-11-12 21:45:57.547
8,0,-6,-11,-11,-3,-1,11,2020-11-12 21:45:57.587
16,5,3,1,-1,0,3,35,2020-11-12 21:45:57.610
18,3,1,-2,-5,-4,-5,16,2020-11-12 21:45:57.650
5,0,1,7,-5,-2,-5,-9,2020-11-12 21:45:57.682
-8,-4,-8,-19,-43,-8,-5,-32,2020-11-12 21:45:57.724
-17,-3,-4,3,4,4,20,-8,2020-11-12 21:45:57.757
-13,-2,-1,-3,-4,3,-7,-13,2020-11-12 21:45:57.778
-8,-5,-2,-2,-1,-4,-3,-25,2020-11-12 21:45:57.802
2,0,2,5,6,1,-4,-11,2020-11-12 21:45:57.817
-7,-2,-4,-3,10,0,-5,-13,2020-11-12 21:45:57.839
-11,0,0,-1,-6,3,-3,-16,2020-11-12 21:45:57.851
4,-4,3,0,12,1,-2,-6,2020-11-12 21:45:57.861
4,-4,3,0,12,1,-2,-6,2020-11-12 21:45:57.871
5,1,8,7,9,2,-6,4,2020-11-12 21:45:57.880
1,-6,-2,-3,1,-5,-3,-16,2020-11-12 21:45:57.887
1,1,-2,-9,-3,-1,-2,-22,2020-11-12 21:45:57.895
1,1,-2,-9,-3,-1,-2,-22,2020-11-12 21:45:57.901
23,9,5,6,3,1,5,3,2020-11-12 21:45:57.906
-51,-20,-4,-1,12,-5,-16,-18,2020-11-12 21:45:57.913
-51,-20,-4,-1,12,-5,-16,-18,2020-11-12 21:45:57.918
-51,-20,-4,-1,12,-5,-16,-18,2020-11-12 21:45:57.924
-51,-20,-4,-1,12,-5,-16,-18,2020-11-12 21:45:57.931
-9,-8,1,0,-1,-2,-3,-15,2020-11-12 21:45:57.937
-51,-6,-4,-2,-4,-1,-7,-36,2020-11-12 21:45:57.944
14,1,-21,-2,-1,4,1,5,2020-11-12 21:45:57.950
14,1,-21,-2,-1,4,1,5,2020-11-12 21:45:57.955
14,1,-21,-2,-1,4,1,5,2020-11-12 21:45:57.962
14,1,3,-6,-39,-11,-4,8,2020-11-12 21:45:57.968
-2,0,11,4,-3,-2,5,12,2020-11-12 21:45:57.974
-2,0,11,4,-3,-2,5,12,2020-11-12 21:45:57.981
-16,-1,1,1,-4,1,13,2,2020-11-12 21:45:57.987
24,11,6,8,10,-2,-17,6,2020-11-12 21:45:57.994
24,11,6,8,10,-2,-17,6,2020-11-12 21:45:58.000
24,11,6,8,10,-2,-17,6,2020-11-12 21:45:58.006
-3,-4,4,9,9,-2,9,12,2020-11-12 21:45:58.013
-3,-4,4,9,9,-2,9,12,2020-11-12 21:45:58.020
20,12,4,2,5,3,7,35,2020-11-12 21:45:58.034
3,-11,-9,-5,0,-4,-8,-30,2020-11-12 21:45:58.042
17,-12,8,4,-4,5,9,27,2020-11-12 21:45:58.062
0,-21,-13,-8,-8,-6,-18,-14,2020-11-12 21:45:58.068
12,21,4,1,-30,0,1,-11,2020-11-12 21:45:58.074
12,21,4,1,-30,0,1,-11,2020-11-12 21:45:58.081
22,-6,-7,-9,6,-6,-28,11,2020-11-12 21:45:58.088
-7,8,3,-12,-21,-4,11,24,2020-11-12 21:45:58.095
-7,8,3,-12,-21,-4,11,24,2020-11-12 21:45:58.102
-4,-6,-6,-6,14,1,7,-20,2020-11-12 21:45:58.107
-4,-6,-6,-6,14,1,7,-20,2020-11-12 21:45:58.114
6,5,11,2,-6,0,10,12,2020-11-12 21:45:58.121
6,5,11,2,-6,0,10,12,2020-11-12 21:45:58.128
10,8,3,2,24,6,-2,15,2020-11-12 21:45:58.133
10,8,3,2,24,6,-2,15,2020-11-12 21:45:58.139
12,15,12,0,6,6,16,12,2020-11-12 21:45:58.147
-13,-3,13,8,15,5,-12,-30,2020-11-12 21:45:58.153
-13,-3,13,8,15,5,-12,-30,2020-11-12 21:45:58.159
-13,-3,13,8,15,5,-12,-30,2020-11-12 21:45:58.166
-19,0,4,-2,-1,-6,10,-5,2020-11-12 21:45:58.172
-19,0,4,-2,-1,-6,10,-5,2020-11-12 21:45:58.180
-2,-1,-2,3,-16,3,13,-14,2020-11-12 21:45:58.185
6,4,2,0,-4,-6,0,-1,2020-11-12 21:45:58.191
6,4,2,0,-4,-6,0,-1,2020-11-12 21:45:58.197
-7,8,12,1,-5,-4,-4,-25,2020-11-12 21:45:58.203
-7,8,12,1,-5,-4,-4,-25,2020-11-12 21:45:58.211
0,-2,-7,-6,1,-6,-8,7,2020-11-12 21:45:58.217
0,-2,-7,-6,1,-6,-8,7,2020-11-12 21:45:58.226
-12,-9,-7,4,-4,2,-14,-21,2020-11-12 21:45:58.242
0,2,8,15,-2,-3,-18,-9,2020-11-12 21:45:58.248
-12,-11,-6,-2,-1,-5,-3,0,2020-11-12 21:45:58.254
-12,-11,-6,-2,-1,-5,-3,0,2020-11-12 21:45:58.264
15,6,-9,-7,3,-2,7,31,2020-11-12 21:45:58.272
1,-5,-7,2,-7,-1,-1,4,2020-11-12 21:45:58.278
1,-5,-7,2,-7,-1,-1,4,2020-11-12 21:45:58.285
6,36,28,0,-5,-1,1,0,2020-11-12 21:45:58.293
6,36,28,0,-5,-1,1,0,2020-11-12 21:45:58.302
-13,-8,-15,-4,-2,-2,-10,-19,2020-11-12 21:45:58.312
11,10,8,6,-3,-1,4,9,2020-11-12 21:45:58.319
-1,-2,-1,0,2,2,5,-3,2020-11-12 21:45:58.327
-3,-10,-13,-4,2,2,-4,5,2020-11-12 21:45:58.334
-3,-10,-13,-4,2,2,-4,5,2020-11-12 21:45:58.341
-13,-10,-2,-4,-9,-3,-5,-27,2020-11-12 21:45:58.348
3,-5,-6,0,3,7,4,-1,2020-11-12 21:45:58.354
-6,0,8,7,17,6,-7,-12,2020-11-12 21:45:58.362
-6,0,8,7,17,6,-7,-12,2020-11-12 21:45:58.368
3,-2,-8,-5,1,5,0,3,2020-11-12 21:45:58.375
3,-2,-8,-5,1,5,0,3,2020-11-12 21:45:58.383
-9,-7,-21,-7,-10,-15,-8,-12,2020-11-12 21:45:58.390
-3,-10,-2,-2,4,-3,0,0,2020-11-12 21:45:58.397
-3,-10,-2,-2,4,-3,0,0,2020-11-12 21:45:58.404
19,18,21,10,1,6,9,22,2020-11-12 21:45:58.411
-18,6,6,-6,-5,-8,-10,-30,2020-11-12 21:45:58.417
22,3,9,-8,-8,-3,-22,-7,2020-11-12 21:45:58.423
6,-1,0,5,12,3,9,10,2020-11-12 21:45:58.430
6,-1,0,5,12,3,9,10,2020-11-12 21:45:58.444
-38,-20,-17,-3,-8,-2,2,-37,2020-11-12 21:45:58.450
35,1,-5,-1,-16,2,23,57,2020-11-12 21:45:58.456
35,1,-5,-1,-16,2,23,57,2020-11-12 21:45:58.463
-5,-28,-16,-9,-5,-1,3,6,2020-11-12 21:45:58.470
-7,4,7,2,-5,4,6,5,2020-11-12 21:45:58.479
0,26,-11,-7,1,-11,-3,15,2020-11-12 21:45:58.485
-3,-3,3,0,-2,-6,-9,-7,2020-11-12 21:45:58.490
-3,-3,3,0,-2,-6,-9,-7,2020-11-12 21:45:58.497
-2,-5,9,10,6,6,-5,8,2020-11-12 21:45:58.503
-2,-5,9,10,6,6,-5,8,2020-11-12 21:45:58.508
-10,-9,-13,-5,2,0,0,10,2020-11-12 21:45:58.514
-10,-9,-13,-5,2,0,0,10,2020-11-12 21:45:58.520
39,21,19,0,-1,3,12,55,2020-11-12 21:45:58.526
39,21,19,0,-1,3,12,55,2020-11-12 21:45:58.533
-13,-2,15,0,3,0,-6,-25,2020-11-12 21:45:58.538
-21,-12,-5,2,-3,-4,-9,-5,2020-11-12 21:45:58.544
5,-38,-51,-6,4,-1,-4,5,2020-11-12 21:45:58.550
5,-38,-51,-6,4,-1,-4,5,2020-11-12 21:45:58.555
5,-38,-51,-6,4,-1,-4,5,2020-11-12 21:45:58.562
12,2,4,1,-2,3,3,9,2020-11-12 21:45:58.568
-40,-41,-43,-9,-3,-10,-27,-40,2020-11-12 21:45:58.574
-40,-41,-43,-9,-3,-10,-27,-40,2020-11-12 21:45:58.580
11,12,9,-6,-17,2,21,3,2020-11-12 21:45:58.586
11,12,9,-6,-17,2,21,3,2020-11-12 21:45:58.591
-14,12,10,2,-7,-8,-18,-41,2020-11-12 21:45:58.597
-14,12,10,2,-7,-8,-18,-41,2020-11-12 21:45:58.603
-46,-6,-1,0,1,-1,-1,-10,2020-11-12 21:45:58.609
-30,5,-17,-10,-5,-5,-5,-25,2020-11-12 21:45:58.615
-51,-39,-20,-6,1,-7,-8,-22,2020-11-12 21:45:58.621
-51,-39,-20,-6,1,-7,-8,-22,2020-11-12 21:45:58.628
86,60,45,18,17,15,40,91,2020-11-12 21:45:58.633
86,60,45,18,17,15,40,91,2020-11-12 21:45:58.647
-35,-12,1,-4,-9,-5,-13,-27,2020-11-12 21:45:58.654
-35,-12,1,-4,-9,-5,-13,-27,2020-11-12 21:45:58.661
-35,-12,1,-4,-9,-5,-13,-27,2020-11-12 21:45:58.666
22,10,4,-5,-13,4,2,5,2020-11-12 21:45:58.672
22,10,4,-5,-13,4,2,5,2020-11-12 21:45:58.678
22,10,4,-5,-13,4,2,5,2020-11-12 21:45:58.684
22,10,4,-5,-13,4,2,5,2020-11-12 21:45:58.690
32,-2,4,3,4,-2,15,11,2020-11-12 21:45:58.696
32,-2,4,3,4,-2,15,11,2020-11-12 21:45:58.702
30,6,2,-6,-22,-3,15,33,2020-11-12 21:45:58.708
-6,3,16,7,-8,0,11,15,2020-11-12 21:45:58.715
-6,3,16,7,-8,0,11,15,2020-11-12 21:45:58.721
-6,3,16,7,-8,0,11,15,2020-11-12 21:45:58.727
5,-1,2,-2,1,-1,0,10,2020-11-12 21:45:58.733
5,-1,2,-2,1,-1,0,10,2020-11-12 21:45:58.739
8,-4,-3,5,-2,-1,-13,-19,2020-11-12 21:45:58.746
-3,0,-2,2,8,2,0,0,2020-11-12 21:45:58.752
-3,0,-2,2,8,2,0,0,2020-11-12 21:45:58.758
-3,0,-2,2,8,2,0,0,2020-11-12 21:45:58.764
7,-1,2,1,0,-4,-2,11,2020-11-12 21:45:58.770
-9,-7,-7,-1,2,1,10,2,2020-11-12 21:45:58.776
-9,-7,-7,-1,2,1,10,2,2020-11-12 21:45:58.782
-9,-7,-7,-1,2,1,10,2,2020-11-12 21:45:58.788
-5,-4,-5,-1,-6,-4,-10,-2,2020-11-12 21:45:58.795
-5,-4,-5,-1,-6,-4,-10,-2,2020-11-12 21:45:58.800
-9,1,2,-1,9,5,8,4,2020-11-12 21:45:58.806
9,2,2,5,5,6,-5,3,2020-11-12 21:45:58.812
9,2,2,5,5,6,-5,3,2020-11-12 21:45:58.817
9,2,2,5,5,6,-5,3,2020-11-12 21:45:58.823
9,2,2,5,5,6,-5,3,2020-11-12 21:45:58.830
0,1,-2,-4,-3,2,-2,-6,2020-11-12 21:45:58.835
0,1,-2,-4,-3,2,-2,-6,2020-11-12 21:45:58.850
-9,0,7,-1,8,-2,-2,-52,2020-11-12 21:45:58.855
-9,0,7,-1,8,-2,-2,-52,2020-11-12 21:45:58.862
7,5,0,-10,-11,-3,10,11,2020-11-12 21:45:58.867
-44,-1,15,2,-8,-6,-5,-15,2020-11-12 21:45:58.873
-44,-1,15,2,-8,-6,-5,-15,2020-11-12 21:45:58.880
-49,12,12,1,1,3,17,4,2020-11-12 21:45:58.885
-49,12,12,1,1,3,17,4,2020-11-12 21:45:58.891
-49,12,12,1,1,3,17,4,2020-11-12 21:45:58.898
25,-10,-12,-4,-12,-3,-2,-3,2020-11-12 21:45:58.903
25,-10,-12,-4,-12,-3,-2,-3,2020-11-12 21:45:58.909
25,-10,-12,-4,-12,-3,-2,-3,2020-11-12 21:45:58.915
-2,-2,1,7,13,4,-8,14,2020-11-12 21:45:58.932
-8,23,14,9,1,7,22,94,2020-11-12 21:45:58.937
-8,23,14,9,1,7,22,94,2020-11-12 21:45:58.944
-8,23,14,9,1,7,22,94,2020-11-12 21:45:58.950
26,-13,-3,-7,-7,-5,-22,-24,2020-11-12 21:45:58.956
26,-13,-3,-7,-7,-5,-22,-24,2020-11-12 21:45:58.963
26,-13,-3,-7,-7,-5,-22,-24,2020-11-12 21:45:58.968
26,-13,-3,-7,-7,-5,-22,-24,2020-11-12 21:45:58.974
-9,-4,-3,2,9,6,-1,-21,2020-11-12 21:45:58.981
-6,-3,11,4,-4,-5,-12,-23,2020-11-12 21:45:58.986
4,4,4,0,7,-1,-9,7,2020-11-12 21:45:58.992
4,4,4,0,7,-1,-9,7,2020-11-12 21:45:58.999
16,2,11,5,4,-1,17,22,2020-11-12 21:45:59.004
16,2,11,5,4,-1,17,22,2020-11-12 21:45:59.010
-19,-19,-15,-9,-13,-4,-9,-22,2020-11-12 21:45:59.016
-19,-19,-15,-9,-13,-4,-9,-22,2020-11-12 21:45:59.022
-19,-19,-15,-9,-13,-4,-9,-22,2020-11-12 21:45:59.028
21,3,-5,-1,3,0,2,-15,2020-11-12 21:45:59.034
21,3,-5,-1,3,0,2,-15,2020-11-12 21:45:59.040
-16,-6,2,1,3,5,3,2,2020-11-12 21:45:59.054
6,12,8,6,8,-4,12,27,2020-11-12 21:45:59.060
-20,-1,-1,2,-14,-7,-22,-47,2020-11-12 21:45:59.066
-20,-1,-1,2,-14,-7,-22,-47,2020-11-12 21:45:59.072
4,-1,-3,-3,-5,0,11,-3,2020-11-12 21:45:59.078
4,-1,-3,-3,-5,0,11,-3,2020-11-12 21:45:59.084
-10,-5,1,-2,9,-3,-14,-6,2020-11-12 21:45:59.090
23,14,-9,-6,-8,-1,7,24,2020-11-12 21:45:59.096
-8,2,4,0,5,-3,3,1,2020-11-12 21:45:59.102
-8,2,4,0,5,-3,3,1,2020-11-12 21:45:59.107
-8,2,4,0,5,-3,3,1,2020-11-12 21:45:59.114
-8,-8,-1,-1,-8,-2,-6,-7,2020-11-12 21:45:59.120
-16,-10,-5,-6,-18,-2,-2,5,2020-11-12 21:45:59.125
-16,-10,-5,-6,-18,-2,-2,5,2020-11-12 21:45:59.132
-5,1,4,10,34,8,-7,2,2020-11-12 21:45:59.137
-5,1,4,10,34,8,-7,2,2020-11-12 21:45:59.144
35,14,2,-9,-17,-2,16,33,2020-11-12 21:45:59.151
-9,-8,-3,0,1,1,-13,-24,2020-11-12 21:45:59.156
23,-4,-8,-6,-3,-8,-11,-1,2020-11-12 21:45:59.163
23,-4,-8,-6,-3,-8,-11,-1,2020-11-12 21:45:59.168
-11,-3,-5,0,-1,4,11,34,2020-11-12 21:45:59.174
-11,-3,-5,0,-1,4,11,34,2020-11-12 21:45:59.181
-15,-5,-3,-3,-7,1,4,-4,2020-11-12 21:45:59.187
-15,-5,-3,-3,-7,1,4,-4,2020-11-12 21:45:59.193
-36,-11,2,1,-8,-9,-9,-33,2020-11-12 21:45:59.199
-36,-11,2,1,-8,-9,-9,-33,2020-11-12 21:45:59.205
1,-1,-4,-5,9,-3,1,-6,2020-11-12 21:45:59.211
1,-1,-4,-5,9,-3,1,-6,2020-11-12 21:45:59.217
-1,1,0,0,4,-1,-2,2,2020-11-12 21:45:59.223
-1,1,0,0,4,-1,-2,2,2020-11-12 21:45:59.230
26,3,-1,-8,-14,-15,-9,-7,2020-11-12 21:45:59.236
26,3,-1,-8,-14,-15,-9,-7,2020-11-12 21:45:59.241
7,10,-3,-12,-14,2,-12,23,2020-11-12 21:45:59.255
7,10,-3,-12,-14,2,-12,23,2020-11-12 21:45:59.261
14,3,-2,-4,-6,6,6,14,2020-11-12 21:45:59.267
-9,-7,-4,-3,-10,3,13,-3,2020-11-12 21:45:59.273
-9,-7,-4,-3,-10,3,13,-3,2020-11-12 21:45:59.280
-10,-9,-32,-11,3,5,6,2,2020-11-12 21:45:59.286
-7,-7,-4,7,-8,13,6,-9,2020-11-12 21:45:59.291
-7,-7,-4,7,-8,13,6,-9,2020-11-12 21:45:59.298
-7,-7,-4,7,-8,13,6,-9,2020-11-12 21:45:59.304
3,-4,3,2,14,7,1,-6,2020-11-12 21:45:59.310
-2,-3,-13,-17,-4,-37,-11,-9,2020-11-12 21:45:59.316
-2,-3,-13,-17,-4,-37,-11,-9,2020-11-12 21:45:59.322
2,-1,4,2,11,12,-1,-11,2020-11-12 21:45:59.329
1,4,7,3,5,-9,1,5,2020-11-12 21:45:59.334
1,4,7,3,5,-9,1,5,2020-11-12 21:45:59.340
-2,-2,0,0,1,4,3,-8,2020-11-12 21:45:59.346
-5,1,3,2,3,-1,-7,-6,2020-11-12 21:45:59.352
-5,1,3,2,3,-1,-7,-6,2020-11-12 21:45:59.357
-5,1,3,2,3,-1,-7,-6,2020-11-12 21:45:59.364
-5,1,3,2,3,-1,-7,-6,2020-11-12 21:45:59.370
4,1,4,3,-4,5,2,20,2020-11-12 21:45:59.375
4,1,4,3,-4,5,2,20,2020-11-12 21:45:59.383
-5,-2,-4,-7,-20,-6,0,0,2020-11-12 21:45:59.389
4,-1,2,-6,1,9,4,-2,2020-11-12 21:45:59.396
-3,-7,9,4,-6,-5,-1,2,2020-11-12 21:45:59.402
-3,-7,9,4,-6,-5,-1,2,2020-11-12 21:45:59.407
-5,4,1,5,10,5,6,1,2020-11-12 21:45:59.414
-5,4,1,5,10,5,6,1,2020-11-12 21:45:59.420
-9,-2,0,-5,-9,-10,-1,0,2020-11-12 21:45:59.425
-9,-2,0,-5,-9,-10,-1,0,2020-11-12 21:45:59.432
-41,9,7,0,4,8,-4,-31,2020-11-12 21:45:59.437
-41,9,7,0,4,8,-4,-31,2020-11-12 21:45:59.443
3,-5,-10,-6,-5,-10,-6,20,2020-11-12 21:45:59.457
-20,0,7,6,6,-1,2,-6,2020-11-12 21:45:59.463
-20,0,7,6,6,-1,2,-6,2020-11-12 21:45:59.468
-20,-15,-8,-9,-3,1,-29,-51,2020-11-12 21:45:59.474
-20,-15,-8,-9,-3,1,-29,-51,2020-11-12 21:45:59.481
-23,-17,-2,-3,-14,-17,-24,-33,2020-11-12 21:45:59.486
-23,-17,-2,-3,-14,-17,-24,-33,2020-11-12 21:45:59.492
65,27,10,2,-19,6,25,86,2020-11-12 21:45:59.497
65,27,10,2,-19,6,25,86,2020-11-12 21:45:59.504
30,-7,-7,-3,10,0,3,-13,2020-11-12 21:45:59.509
-59,-7,-1,-4,-18,-1,8,8,2020-11-12 21:45:59.516
13,10,-2,-8,6,0,-19,-11,2020-11-12 21:45:59.522
13,10,-2,-8,6,0,-19,-11,2020-11-12 21:45:59.529
18,-13,-7,0,-8,-2,-25,-28,2020-11-12 21:45:59.535
18,-13,-7,0,-8,-2,-25,-28,2020-11-12 21:45:59.541
-27,-8,-6,-7,-18,-7,1,8,2020-11-12 21:45:59.547
-4,10,5,2,8,2,4,-14,2020-11-12 21:45:59.553
-4,10,5,2,8,2,4,-14,2020-11-12 21:45:59.559
-4,10,5,2,8,2,4,-14,2020-11-12 21:45:59.565
25,14,9,3,9,6,14,13,2020-11-12 21:45:59.571
-20,-25,-11,-10,-19,-15,-19,-45,2020-11-12 21:45:59.577
-20,-25,-11,-10,-19,-15,-19,-45,2020-11-12 21:45:59.583
-20,-25,-11,-10,-19,-15,-19,-45,2020-11-12 21:45:59.588
-20,-25,-11,-10,-19,-15,-19,-45,2020-11-12 21:45:59.594
38,5,10,7,1,1,-39,-4,2020-11-12 21:45:59.601
-23,-11,-2,5,-7,-5,-6,-11,2020-11-12 21:45:59.606
-23,-11,-2,5,-7,-5,-6,-11,2020-11-12 21:45:59.613
12,4,-11,-4,-6,7,19,2,2020-11-12 21:45:59.618
12,4,-11,-4,-6,7,19,2,2020-11-12 21:45:59.624
-2,8,5,3,16,5,10,36,2020-11-12 21:45:59.630
-27,-9,0,1,17,-2,-13,-52,2020-11-12 21:45:59.636
-27,-9,0,1,17,-2,-13,-52,2020-11-12 21:45:59.641
-27,-9,0,1,17,-2,-13,-52,2020-11-12 21:45:59.648
14,-4,-2,-11,-12,-8,-12,-4,2020-11-12 21:45:59.662
11,11,10,7,18,10,-3,12,2020-11-12 21:45:59.668
4,-15,-4,-1,-7,-9,-19,-14,2020-11-12 21:45:59.673
4,-15,-4,-1,-7,-9,-19,-14,2020-11-12 21:45:59.680
4,-15,-4,-1,-7,-9,-19,-14,2020-11-12 21:45:59.686
39,21,8,0,8,5,19,36,2020-11-12 21:45:59.692
23,-1,0,4,10,1,-1,0,2020-11-12 21:45:59.698
23,-1,0,4,10,1,-1,0,2020-11-12 21:45:59.704
23,-1,0,4,10,1,-1,0,2020-11-12 21:45:59.709
-18,2,5,7,6,2,10,17,2020-11-12 21:45:59.716
-18,2,5,7,6,2,10,17,2020-11-12 21:45:59.722
-45,-13,-6,0,3,0,-8,-29,2020-11-12 21:45:59.727
-45,-13,-6,0,3,0,-8,-29,2020-11-12 21:45:59.734
5,2,-4,3,6,1,-7,8,2020-11-12 21:45:59.740
5,2,-4,3,6,1,-7,8,2020-11-12 21:45:59.758
3,-4,1,1,-3,0,9,1,2020-11-12 21:45:59.765
3,-4,1,1,-3,0,9,1,2020-11-12 21:45:59.771
-15,-11,-24,-4,0,-5,-16,-12,2020-11-12 21:45:59.776
-15,-11,-24,-4,0,-5,-16,-12,2020-11-12 21:45:59.783
-1,4,5,5,-7,2,14,24,2020-11-12 21:45:59.788
-1,4,5,5,-7,2,14,24,2020-11-12 21:45:59.794
-1,4,5,5,-7,2,14,24,2020-11-12 21:45:59.801
-6,-1,7,1,-14,-1,6,-3,2020-11-12 21:45:59.807
31,-2,3,1,-2,-5,-30,-21,2020-11-12 21:45:59.814
-5,5,10,6,12,6,-9,19,2020-11-12 21:45:59.819
-5,5,10,6,12,6,-9,19,2020-11-12 21:45:59.824
-5,5,10,6,12,6,-9,19,2020-11-12 21:45:59.831
-16,-7,-2,-2,2,2,7,2,2020-11-12 21:45:59.836
-16,-7,-2,-2,2,2,7,2,2020-11-12 21:45:59.842
6,16,8,3,2,2,14,27,2020-11-12 21:45:59.849
3,0,-1,-2,3,-1,7,0,2020-11-12 21:45:59.863
-46,-11,1,6,0,1,-7,-22,2020-11-12 21:45:59.869
10,13,10,-2,2,4,3,18,2020-11-12 21:45:59.874
10,13,10,-2,2,4,3,18,2020-11-12 21:45:59.882
10,13,10,-2,2,4,3,18,2020-11-12 21:45:59.887
46,20,2,0,3,-3,-2,20,2020-11-12 21:45:59.893
46,20,2,0,3,-3,-2,20,2020-11-12 21:45:59.900
23,-13,-8,0,2,0,-5,12,2020-11-12 21:45:59.905
23,-13,-8,0,2,0,-5,12,2020-11-12 21:45:59.912
-1,-15,-7,1,1,-2,-25,-40,2020-11-12 21:45:59.917
-1,-15,-7,1,1,-2,-25,-40,2020-11-12 21:45:59.923
-1,4,-2,-3,-3,-1,-4,-13,2020-11-12 21:45:59.930
-3,-11,-3,1,1,-2,-9,-14,2020-11-12 21:45:59.935
-3,-11,-3,1,1,-2,-9,-14,2020-11-12 21:45:59.941
-3,-11,-3,1,1,-2,-9,-14,2020-11-12 21:45:59.948
-8,-1,1,1,-1,-3,12,8,2020-11-12 21:45:59.955
-8,-1,1,1,-1,-3,12,8,2020-11-12 21:45:59.961
-8,-1,1,1,-1,-3,12,8,2020-11-12 21:45:59.967
-8,-1,1,1,-1,-3,12,8,2020-11-12 21:45:59.973
0,7,5,1,-4,-4,9,9,2020-11-12 21:45:59.980
0,7,5,1,-4,-4,9,9,2020-11-12 21:45:59.985
-14,-5,-4,0,-2,0,-13,-26,2020-11-12 21:45:59.991
12,1,3,-5,1,-12,19,30,2020-11-12 21:45:59.998
12,1,3,-5,1,-12,19,30,2020-11-12 21:46:00.004
12,1,3,-5,1,-12,19,30,2020-11-12 21:46:00.015
9,9,1,-1,4,15,12,14,2020-11-12 21:46:00.021
8,0,-5,-4,7,1,6,13,2020-11-12 21:46:00.027
8,0,-5,-4,7,1,6,13,2020-11-12 21:46:00.036
-1,3,4,1,0,1,-6,14,2020-11-12 21:46:00.042
2,12,3,-3,-14,-9,12,-1,2020-11-12 21:46:00.048
2,12,3,-3,-14,-9,12,-1,2020-11-12 21:46:00.053
-3,-4,-5,-3,-6,-16,-16,-25,2020-11-12 21:46:00.067
-11,-5,-2,-3,-1,-4,7,-10,2020-11-12 21:46:00.072
-11,-5,-2,-3,-1,-4,7,-10,2020-11-12 21:46:00.078
-11,-5,-2,-3,-1,-4,7,-10,2020-11-12 21:46:00.084
-16,-6,-4,0,9,-20,2,6,2020-11-12 21:46:00.090
3,-6,-3,1,-3,3,-8,-4,2020-11-12 21:46:00.096
3,-6,-3,1,-3,3,-8,-4,2020-11-12 21:46:00.102
26,3,0,-2,-2,41,-4,11,2020-11-12 21:46:00.108
26,3,0,-2,-2,41,-4,11,2020-11-12 21:46:00.114
-15,-6,-6,-4,-3,27,6,-8,2020-11-12 21:46:00.120
-15,-6,-6,-4,-3,27,6,-8,2020-11-12 21:46:00.126
9,6,4,0,0,2,-13,-1,2020-11-12 21:46:00.133
19,2,-1,-1,-8,-11,21,28,2020-11-12 21:46:00.139
-15,-5,-2,-1,-5,-15,5,5,2020-11-12 21:46:00.145
-15,-5,-2,-1,-5,-15,5,5,2020-11-12 21:46:00.151
-12,-1,9,4,10,-10,1,-6,2020-11-12 21:46:00.156
-12,-1,9,4,10,-10,1,-6,2020-11-12 21:46:00.163
1,3,0,-4,-3,-5,4,3,2020-11-12 21:46:00.169
1,3,0,-4,-3,-5,4,3,2020-11-12 21:46:00.174
9,-2,-2,-5,-16,-3,-1,1,2020-11-12 21:46:00.180
9,-2,-2,-5,-16,-3,-1,1,2020-11-12 21:46:00.186
-5,5,1,1,9,0,-3,3,2020-11-12 21:46:00.192
-5,5,1,1,9,0,-3,3,2020-11-12 21:46:00.198
-5,5,1,1,9,0,-3,3,2020-11-12 21:46:00.204
0,1,1,6,9,8,5,10,2020-11-12 21:46:00.210
-10,-8,-6,-2,-4,-8,-10,-27,2020-11-12 21:46:00.216
-10,-8,-6,-2,-4,-8,-10,-27,2020-11-12 21:46:00.223
11,13,4,1,10,0,-4,-5,2020-11-12 21:46:00.229
11,13,4,1,10,0,-4,-5,2020-11-12 21:46:00.235
25,3,-2,-2,-3,2,-1,10,2020-11-12 21:46:00.241
25,3,-2,-2,-3,2,-1,10,2020-11-12 21:46:00.247
16,-13,-9,-4,-5,6,0,-9,2020-11-12 21:46:00.254
16,-13,-9,-4,-5,6,0,-9,2020-11-12 21:46:00.268
-13,-4,-1,1,1,2,-11,-13,2020-11-12 21:46:00.274
-13,-4,-1,1,1,2,-11,-13,2020-11-12 21:46:00.281
-13,-4,-1,1,1,2,-11,-13,2020-11-12 21:46:00.287
-18,-7,-4,-2,-3,-1,-2,3,2020-11-12 21:46:00.293
1,0,-2,-2,-2,1,0,1,2020-11-12 21:46:00.300
1,0,-2,-2,-2,1,0,1,2020-11-12 21:46:00.306
-22,-7,-5,-1,-1,-9,-15,-30,2020-11-12 21:46:00.312
-7,7,0,-3,4,-1,-4,10,2020-11-12 21:46:00.318
-7,7,0,-3,4,-1,-4,10,2020-11-12 21:46:00.324
-4,-7,-5,-4,-7,-1,-17,-34,2020-11-12 21:46:00.330
13,11,10,2,0,-4,4,15,2020-11-12 21:46:00.336
13,11,10,2,0,-4,4,15,2020-11-12 21:46:00.342
-17,-10,-9,-2,1,-5,-6,-32,2020-11-12 21:46:00.348
-17,-10,-9,-2,1,-5,-6,-32,2020-11-12 21:46:00.353
-7,4,2,-3,-20,-2,7,3,2020-11-12 21:46:00.359
-7,4,2,-3,-20,-2,7,3,2020-11-12 21:46:00.366
9,2,10,3,1,-1,6,15,2020-11-12 21:46:00.371
-15,-5,-3,0,8,-2,14,2,2020-11-12 21:46:00.377
-15,-5,-3,0,8,-2,14,2,2020-11-12 21:46:00.384
12,6,8,3,2,1,-1,34,2020-11-12 21:46:00.390
-6,-7,2,-3,6,3,-10,-7,2020-11-12 21:46:00.396
-6,-7,2,-3,6,3,-10,-7,2020-11-12 21:46:00.403
-4,-2,-1,-2,-6,-15,7,1,2020-11-12 21:46:00.408
-4,-2,-1,-2,-6,-15,7,1,2020-11-12 21:46:00.415
-4,-2,-1,-2,-6,-15,7,1,2020-11-12 21:46:00.421
-4,-2,-1,-2,-6,-15,7,1,2020-11-12 21:46:00.426
-13,-1,-4,-3,1,6,5,12,2020-11-12 21:46:00.432
-13,-1,-4,-3,1,6,5,12,2020-11-12 21:46:00.438
-13,-1,-4,-3,1,6,5,12,2020-11-12 21:46:00.443
-26,-11,-6,-8,-1,1,-8,-40,2020-11-12 21:46:00.450
11,14,1,0,-3,-6,0,5,2020-11-12 21:46:00.455
11,14,1,0,-3,-6,0,5,2020-11-12 21:46:00.469
29,12,17,8,19,25,18,24,2020-11-12 21:46:00.474
29,12,17,8,19,25,18,24,2020-11-12 21:46:00.481
-11,-7,-5,-4,-8,3,-4,1,2020-11-12 21:46:00.486
7,23,40,5,8,4,15,6,2020-11-12 21:46:00.492
-2,2,5,1,2,8,6,9,2020-11-12 21:46:00.498
-2,2,5,1,2,8,6,9,2020-11-12 21:46:00.504
-2,2,5,1,2,8,6,9,2020-11-12 21:46:00.510
5,2,-11,1,-2,-20,-12,-4,2020-11-12 21:46:00.517
5,2,-11,1,-2,-20,-12,-4,2020-11-12 21:46:00.523
-18,-13,-15,-7,-43,31,-9,-20,2020-11-12 21:46:00.528
-18,-13,-15,-7,-43,31,-9,-20,2020-11-12 21:46:00.535
-18,-13,-15,-7,-43,31,-9,-20,2020-11-12 21:46:00.540
0,14,3,2,6,21,-12,15,2020-11-12 21:46:00.547
9,4,-3,3,15,-3,-5,11,2020-11-12 21:46:00.553
-12,-6,-21,-7,0,-8,-12,-19,2020-11-12 21:46:00.558
-12,-6,-21,-7,0,-8,-12,-19,2020-11-12 21:46:00.565
-12,-6,-21,-7,0,-8,-12,-19,2020-11-12 21:46:00.571
-5,-9,5,-1,6,-13,-1,-4,2020-11-12 21:46:00.576
-5,-9,5,-1,6,-13,-1,-4,2020-11-12 21:46:00.583
1,2,-3,-3,7,-25,-5,1,2020-11-12 21:46:00.588
1,2,-3,-3,7,-25,-5,1,2020-11-12 21:46:00.607
-21,-14,-5,-3,2,-28,-26,-15,2020-11-12 21:46:00.614
13,15,6,5,15,-61,15,4,2020-11-12 21:46:00.620
13,15,6,5,15,-61,15,4,2020-11-12 21:46:00.625
13,15,6,5,15,-61,15,4,2020-11-12 21:46:00.632
-31,-27,-12,-4,-6,124,-11,-32,2020-11-12 21:46:00.638
-31,-27,-12,-4,-6,124,-11,-32,2020-11-12 21:46:00.643
-2,-9,-8,1,13,38,7,4,2020-11-12 21:46:00.651
1,-18,10,-1,-14,-24,4,0,2020-11-12 21:46:00.656
1,-18,10,-1,-14,-24,4,0,2020-11-12 21:46:00.670
13,-4,-12,1,10,-43,5,7,2020-11-12 21:46:00.675
-7,3,-1,1,3,-57,-12,-12,2020-11-12 21:46:00.682
-7,3,-1,1,3,-57,-12,-12,2020-11-12 21:46:00.687
-7,3,-1,1,3,-57,-12,-12,2020-11-12 21:46:00.693
6,-1,-1,4,2,-12,-2,-5,2020-11-12 21:46:00.699
6,-1,-1,4,2,-12,-2,-5,2020-11-12 21:46:00.705
25,13,-4,-8,6,27,2,12,2020-11-12 21:46:00.711
-3,7,-1,-1,-1,26,13,16,2020-11-12 21:46:00.718
-3,7,-1,-1,-1,26,13,16,2020-11-12 21:46:00.724
-3,7,-1,-1,-1,26,13,16,2020-11-12 21:46:00.730
-20,1,-10,5,6,12,1,-28,2020-11-12 21:46:00.735
44,15,-9,1,10,13,-2,5,2020-11-12 21:46:00.741
44,15,-9,1,10,13,-2,5,2020-11-12 21:46:00.747
44,15,-9,1,10,13,-2,5,2020-11-12 21:46:00.753
14,29,13,1,-16,-15,15,18,2020-11-12 21:46:00.758
14,29,13,1,-16,-15,15,18,2020-11-12 21:46:00.765
-27,6,3,2,7,-2,1,-4,2020-11-12 21:46:00.771
-3,-8,-4,-11,-4,7,15,-4,2020-11-12 21:46:00.777
-3,-8,-4,-11,-4,7,15,-4,2020-11-12 21:46:00.784
-3,-8,-4,-11,-4,7,15,-4,2020-11-12 21:46:00.790
-19,5,7,5,2,16,7,3,2020-11-12 21:46:00.795
16,-8,-6,-6,-21,-22,-16,13,2020-11-12 21:46:00.802
16,-8,-6,-6,-21,-22,-16,13,2020-11-12 21:46:00.807
16,-8,-6,-6,-21,-22,-16,13,2020-11-12 21:46:00.812
36,-4,-5,-1,13,-11,-9,3,2020-11-12 21:46:00.818
36,-4,-5,-1,13,-11,-9,3,2020-11-12 21:46:00.824
-16,-14,-10,-9,-3,-9,-12,17,2020-11-12 21:46:00.830
-102,-2,5,5,-4,9,-3,-17,2020-11-12 21:46:00.836
-102,-2,5,5,-4,9,-3,-17,2020-11-12 21:46:00.842
-102,-2,5,5,-4,9,-3,-17,2020-11-12 21:46:00.849
-102,-7,1,0,-8,4,10,-34,2020-11-12 21:46:00.855
-33,-4,0,2,7,-2,13,-3,2020-11-12 21:46:00.860
-33,-4,0,2,7,-2,13,-3,2020-11-12 21:46:00.875
23,-7,2,-1,-22,4,10,15,2020-11-12 21:46:00.882
-11,1,-13,-9,2,11,-2,-3,2020-11-12 21:46:00.887
-11,1,-13,-9,2,11,-2,-3,2020-11-12 21:46:00.893
8,4,1,-1,-2,-7,-11,-5,2020-11-12 21:46:00.899
8,4,1,-1,-2,-7,-11,-5,2020-11-12 21:46:00.905
33,15,14,7,-3,8,8,34,2020-11-12 21:46:00.911
-13,-1,-4,-2,-14,-4,2,-16,2020-11-12 21:46:00.917
-13,-1,-4,-2,-14,-4,2,-16,2020-11-12 21:46:00.923
-13,-1,-4,-2,-14,-4,2,-16,2020-11-12 21:46:00.930
28,1,6,-2,-4,1,3,13,2020-11-12 21:46:00.936
28,1,6,-2,-4,1,3,13,2020-11-12 21:46:00.942
-3,-4,0,0,-7,0,-1,-12,2020-11-12 21:46:00.948
-3,-4,0,0,-7,0,-1,-12,2020-11-12 21:46:00.954
6,-16,-6,3,15,-3,14,-5,2020-11-12 21:46:00.959
6,-16,-6,3,15,-3,14,-5,2020-11-12 21:46:00.966
11,15,1,-3,1,4,-7,-14,2020-11-12 21:46:00.972
11,15,1,-3,1,4,-7,-14,2020-11-12 21:46:00.977
11,15,1,-3,1,4,-7,-14,2020-11-12 21:46:00.984
28,4,-9,-7,1,-5,-3,7,2020-11-12 21:46:00.990
-24,-5,-2,1,4,5,5,-6,2020-11-12 21:46:00.996
-24,-5,-2,1,4,5,5,-6,2020-11-12 21:46:01.003
-13,7,6,-1,-9,-4,-6,-30,2020-11-12 21:46:01.008
-13,7,6,-1,-9,-4,-6,-30,2020-11-12 21:46:01.016
7,-16,-7,-2,-3,-7,-27,-8,2020-11-12 21:46:01.023
7,-16,-7,-2,-3,-7,-27,-8,2020-11-12 21:46:01.028
20,2,4,3,3,1,5,16,2020-11-12 21:46:01.035
17,37,19,-1,-3,-8,-6,7,2020-11-12 21:46:01.041
17,37,19,-1,-3,-8,-6,7,2020-11-12 21:46:01.048
-1,-20,-31,-2,6,1,-3,-6,2020-11-12 21:46:01.054
-18,-9,-2,0,8,2,-2,3,2020-11-12 21:46:01.060
-18,-9,-2,0,8,2,-2,3,2020-11-12 21:46:01.067
19,-11,10,-1,-4,-3,5,14,2020-11-12 21:46:01.081
-13,-18,-8,-2,-3,-3,-8,-12,2020-11-12 21:46:01.086
24,2,3,2,0,-11,-2,-6,2020-11-12 21:46:01.092
21,-11,-12,-2,1,-3,-17,-20,2020-11-12 21:46:01.101
-57,-5,1,-2,-3,2,-2,-10,2020-11-12 21:46:01.107
24,14,4,2,-8,0,5,40,2020-11-12 21:46:01.114
-36,12,3,2,5,9,12,-20,2020-11-12 21:46:01.120
-36,12,3,2,5,9,12,-20,2020-11-12 21:46:01.125
17,-6,-7,-1,3,-9,-7,-3,2020-11-12 21:46:01.133
26,-22,-6,0,5,4,2,6,2020-11-12 21:46:01.139
26,-22,-6,0,5,4,2,6,2020-11-12 21:46:01.144
1,8,10,-1,10,-3,-1,4,2020-11-12 21:46:01.151
55,-7,-8,-1,2,-2,-7,18,2020-11-12 21:46:01.156
55,-7,-8,-1,2,-2,-7,18,2020-11-12 21:46:01.162
55,-7,-8,-1,2,-2,-7,18,2020-11-12 21:46:01.169
-29,2,-2,-1,-7,-1,0,-16,2020-11-12 21:46:01.174
-29,2,-2,-1,-7,-1,0,-16,2020-11-12 21:46:01.181
17,23,3,-3,-4,-1,5,28,2020-11-12 21:46:01.186
17,23,3,-3,-4,-1,5,28,2020-11-12 21:46:01.192
37,19,13,3,3,9,24,25,2020-11-12 21:46:01.199
37,19,13,3,3,9,24,25,2020-11-12 21:46:01.205
-51,-5,0,-8,-3,0,9,-9,2020-11-12 21:46:01.210
-51,-5,0,-8,-3,0,9,-9,2020-11-12 21:46:01.216
29,-16,-33,-7,-2,-6,-17,-4,2020-11-12 21:46:01.222
29,-16,-33,-7,-2,-6,-17,-4,2020-11-12 21:46:01.228
2,-24,-3,3,1,-5,-2,-1,2020-11-12 21:46:01.235
-18,1,14,5,10,7,2,-6,2020-11-12 21:46:01.241
-29,-23,-8,0,5,-1,-4,-12,2020-11-12 21:46:01.248
-29,-23,-8,0,5,-1,-4,-12,2020-11-12 21:46:01.254
17,5,0,4,0,2,-2,14,2020-11-12 21:46:01.259
17,5,0,4,0,2,-2,14,2020-11-12 21:46:01.266
41,-1,2,2,0,-5,7,41,2020-11-12 21:46:01.272
-20,24,25,-2,-3,12,8,9,2020-11-12 21:46:01.287
25,-1,-6,9,7,15,23,32,2020-11-12 21:46:01.293
20,41,2,-7,-4,4,0,9,2020-11-12 21:46:01.300
20,41,2,-7,-4,4,0,9,2020-11-12 21:46:01.306
10,-6,-19,-2,1,4,2,-10,2020-11-12 21:46:01.313
-17,4,12,-5,-6,4,4,-9,2020-11-12 21:46:01.320
-17,4,12,-5,-6,4,4,-9,2020-11-12 21:46:01.325
-17,4,12,-5,-6,4,4,-9,2020-11-12 21:46:01.332
-17,4,12,-5,-6,4,4,-9,2020-11-12 21:46:01.337
-14,-11,-3,11,7,6,4,28,2020-11-12 21:46:01.343
-14,-11,-3,11,7,6,4,28,2020-11-12 21:46:01.350
-29,-42,-21,7,11,-5,7,0,2020-11-12 21:46:01.355
16,-26,-48,-7,3,6,-4,-9,2020-11-12 21:46:01.361
16,-26,-48,-7,3,6,-4,-9,2020-11-12 21:46:01.366
20,29,18,0,-5,-7,-5,6,2020-11-12 21:46:01.372
-27,-22,-8,2,6,5,-14,-76,2020-11-12 21:46:01.378
-27,-22,-8,2,6,5,-14,-76,2020-11-12 21:46:01.385
7,5,11,-2,-12,-4,1,-5,2020-11-12 21:46:01.391
7,5,11,-2,-12,-4,1,-5,2020-11-12 21:46:01.396
2,-44,-19,-4,-10,-7,-9,21,2020-11-12 21:46:01.402
2,-44,-19,-4,-10,-7,-9,21,2020-11-12 21:46:01.408
10,42,21,1,-4,-6,25,45,2020-11-12 21:46:01.415
-9,-16,7,1,1,-5,6,16,2020-11-12 21:46:01.421
5,-4,-3,-1,6,-3,1,-5,2020-11-12 21:46:01.426
5,-4,-3,-1,6,-3,1,-5,2020-11-12 21:46:01.433
23,-3,6,0,2,1,0,-10,2020-11-12 21:46:01.438
23,-3,6,0,2,1,0,-10,2020-11-12 21:46:01.444
-1,8,6,1,1,6,-14,-31,2020-11-12 21:46:01.451
-1,8,6,1,1,6,-14,-31,2020-11-12 21:46:01.469
-20,-10,-7,-5,-8,-17,-2,-5,2020-11-12 21:46:01.475
-19,-4,4,2,-1,5,-8,-20,2020-11-12 21:46:01.488
-19,-4,4,2,-1,5,-8,-20,2020-11-12 21:46:01.493
-25,-3,-5,-12,-24,-10,-10,-19,2020-11-12 21:46:01.500
-25,-3,-5,-12,-24,-10,-10,-19,2020-11-12 21:46:01.505
31,21,9,5,7,-4,5,-4,2020-11-12 21:46:01.511
31,21,9,5,7,-4,5,-4,2020-11-12 21:46:01.518
-3,-14,-6,0,2,11,-16,-12,2020-11-12 21:46:01.523
-3,-14,-6,0,2,11,-16,-12,2020-11-12 21:46:01.529
13,0,0,-8,-6,-14,7,4,2020-11-12 21:46:01.535
6,7,4,1,-1,-3,-4,-11,2020-11-12 21:46:01.541
6,7,4,1,-1,-3,-4,-11,2020-11-12 21:46:01.548
6,7,4,1,-1,-3,-4,-11,2020-11-12 21:46:01.554
19,5,-10,0,4,3,13,16,2020-11-12 21:46:01.559
19,5,-10,0,4,3,13,16,2020-11-12 21:46:01.566
1,15,0,3,2,-9,-2,0,2020-11-12 21:46:01.572
1,15,0,3,2,-9,-2,0,2020-11-12 21:46:01.577
-32,-19,-4,0,4,6,-3,-20,2020-11-12 21:46:01.583
-32,-19,-4,0,4,6,-3,-20,2020-11-12 21:46:01.589
27,-5,-7,1,0,-2,10,13,2020-11-12 21:46:01.595
14,6,6,-4,-14,-3,-3,1,2020-11-12 21:46:01.602
14,6,6,-4,-14,-3,-3,1,2020-11-12 21:46:01.608
14,6,6,-4,-14,-3,-3,1,2020-11-12 21:46:01.615
23,15,1,2,2,-4,-1,5,2020-11-12 21:46:01.620
23,15,1,2,2,-4,-1,5,2020-11-12 21:46:01.626
-7,-15,-5,-4,-5,4,-3,4,2020-11-12 21:46:01.633
-35,-4,-3,-5,2,0,-8,-28,2020-11-12 21:46:01.638
13,17,10,0,-4,3,2,15,2020-11-12 21:46:01.644
13,17,10,0,-4,3,2,15,2020-11-12 21:46:01.651
-3,-4,-9,4,2,-4,7,21,2020-11-12 21:46:01.656
-3,-4,-9,4,2,-4,7,21,2020-11-12 21:46:01.662
-7,-13,-8,0,4,-2,1,4,2020-11-12 21:46:01.669
-7,-13,-8,0,4,-2,1,4,2020-11-12 21:46:01.674
10,-3,2,2,10,14,1,8,2020-11-12 21:46:01.681
10,-3,2,2,10,14,1,8,2020-11-12 21:46:01.693
3,12,8,3,5,5,2,2,2020-11-12 21:46:01.699
3,12,8,3,5,5,2,2,2020-11-12 21:46:01.705
3,12,8,3,5,5,2,2,2020-11-12 21:46:01.710
-31,-29,-11,-7,-9,12,3,-22,2020-11-12 21:46:01.717
-1,10,3,4,-1,0,1,-3,2020-11-12 21:46:01.723
-1,10,3,4,-1,0,1,-3,2020-11-12 21:46:01.729
-1,10,3,4,-1,0,1,-3,2020-11-12 21:46:01.735
42,0,-3,0,3,-1,9,16,2020-11-12 21:46:01.741
42,0,-3,0,3,-1,9,16,2020-11-12 21:46:01.747
-22,-4,3,5,0,1,-8,-9,2020-11-12 21:46:01.753
-10,-2,-4,-1,-3,-9,-10,-18,2020-11-12 21:46:01.758
-10,-2,-4,-1,-3,-9,-10,-18,2020-11-12 21:46:01.765
-10,-2,-4,-1,-3,-9,-10,-18,2020-11-12 21:46:01.771
24,8,1,-3,0,4,-2,12,2020-11-12 21:46:01.776
-5,2,3,1,0,-2,-1,-9,2020-11-12 21:46:01.783
-5,2,3,1,0,-2,-1,-9,2020-11-12 21:46:01.789
-5,2,3,1,0,-2,-1,-9,2020-11-12 21:46:01.795
-2,-3,-2,0,3,-12,0,-8,2020-11-12 21:46:01.801
-2,-3,-2,0,3,-12,0,-8,2020-11-12 21:46:01.806
3,3,0,4,8,4,-6,2,2020-11-12 21:46:01.812
3,3,0,4,8,4,-6,2,2020-11-12 21:46:01.818
-54,-11,0,0,-2,-13,-1,-20,2020-11-12 21:46:01.824
-54,-11,0,0,-2,-13,-1,-20,2020-11-12 21:46:01.831
27,-2,1,1,3,12,1,8,2020-11-12 21:46:01.837
14,10,-3,-4,-9,-5,6,29,2020-11-12 21:46:01.842
14,10,-3,-4,-9,-5,6,29,2020-11-12 21:46:01.849
14,10,-3,-4,-9,-5,6,29,2020-11-12 21:46:01.854
-14,-3,-2,0,5,-5,-6,-7,2020-11-12 21:46:01.860
-14,-3,-2,0,5,-5,-6,-7,2020-11-12 21:46:01.867
-11,-7,-10,-3,-8,-6,-2,-8,2020-11-12 21:46:01.873
-4,3,-4,2,4,0,6,11,2020-11-12 21:46:01.878
-4,3,-4,2,4,0,6,11,2020-11-12 21:46:01.885
-4,3,-4,2,4,0,6,11,2020-11-12 21:46:01.898
3,1,-2,-1,1,-6,0,4,2020-11-12 21:46:01.904
3,1,-2,-1,1,-6,0,4,2020-11-12 21:46:01.910
3,1,-2,-1,1,-6,0,4,2020-11-12 21:46:01.916
-21,-7,0,0,2,-15,-16,-27,2020-11-12 21:46:01.922
-21,-7,0,0,2,-15,-16,-27,2020-11-12 21:46:01.927
28,14,17,11,9,10,11,14,2020-11-12 21:46:01.934
20,-2,-2,-3,-3,-2,6,8,2020-11-12 21:46:01.940
20,-2,-2,-3,-3,-2,6,8,2020-11-12 21:46:01.945
20,-2,-2,-3,-3,-2,6,8,2020-11-12 21:46:01.952
-44,-3,13,2,1,-8,-6,-9,2020-11-12 21:46:01.958
-44,-3,13,2,1,-8,-6,-9,2020-11-12 21:46:01.964
7,14,0,-3,-2,6,3,6,2020-11-12 21:46:01.970
7,14,0,-3,-2,6,3,6,2020-11-12 21:46:01.975
-1,-12,-1,2,-4,-21,-8,0,2020-11-12 21:46:01.982
-1,-12,-1,2,-4,-21,-8,0,2020-11-12 21:46:01.987
-2,1,0,-4,-5,-7,-4,0,2020-11-12 21:46:01.993
-1,3,7,3,10,8,6,0,2020-11-12 21:46:02.000
-1,3,7,3,10,8,6,0,2020-11-12 21:46:02.005
-1,3,7,3,10,8,6,0,2020-11-12 21:46:02.011
-1,3,7,3,10,8,6,0,2020-11-12 21:46:02.018
4,5,3,2,3,-6,6,10,2020-11-12 21:46:02.024
4,5,3,2,3,-6,6,10,2020-11-12 21:46:02.029
4,5,3,2,3,-6,6,10,2020-11-12 21:46:02.036
-8,-4,0,-2,-4,2,5,-1,2020-11-12 21:46:02.042
-8,-4,0,-2,-4,2,5,-1,2020-11-12 21:46:02.049
8,4,-8,-8,-11,-4,-11,0,2020-11-12 21:46:02.055
-12,-9,-10,-3,-4,4,-3,-2,2020-11-12 21:46:02.060
-12,-9,-10,-3,-4,4,-3,-2,2020-11-12 21:46:02.066
-12,-9,-10,-3,-4,4,-3,-2,2020-11-12 21:46:02.072
13,-15,-11,-5,-2,1,-6,5,2020-11-12 21:46:02.077
-8,-1,-2,-5,-1,-14,-9,-2,2020-11-12 21:46:02.084
-8,-1,-2,-5,-1,-14,-9,-2,2020-11-12 21:46:02.090
-16,1,0,0,1,1,3,-10,2020-11-12 21:46:02.103
-4,-5,-9,-7,1,-14,-14,-18,2020-11-12 21:46:02.109
-19,-9,-9,0,4,11,10,7,2020-11-12 21:46:02.115
9,9,4,7,6,7,8,24,2020-11-12 21:46:02.121
9,9,4,7,6,7,8,24,2020-11-12 21:46:02.127
-7,-10,-3,-9,2,9,-8,-23,2020-11-12 21:46:02.133
-7,-10,-3,-9,2,9,-8,-23,2020-11-12 21:46:02.139
-2,2,-1,1,-2,-6,-8,-10,2020-11-12 21:46:02.144
-2,2,-1,1,-2,-6,-8,-10,2020-11-12 21:46:02.151
32,9,20,1,3,17,4,12,2020-11-12 21:46:02.156
-35,4,10,-5,-4,-15,-2,-8,2020-11-12 21:46:02.162
-35,4,10,-5,-4,-15,-2,-8,2020-11-12 21:46:02.169
-15,14,3,2,1,16,-1,15,2020-11-12 21:46:02.174
-29,-3,-4,-8,-6,-13,4,-61,2020-11-12 21:46:02.181
-29,-3,-4,-8,-6,-13,4,-61,2020-11-12 21:46:02.186
-29,-3,-4,-8,-6,-13,4,-61,2020-11-12 21:46:02.192
-14,8,1,0,-5,1,-7,-43,2020-11-12 21:46:02.198
-89,-1,-5,0,-4,-45,3,-23,2020-11-12 21:46:02.204
-89,-1,-5,0,-4,-45,3,-23,2020-11-12 21:46:02.209
15,5,6,4,1,-15,12,-3,2020-11-12 21:46:02.216
8,-12,-8,-5,-3,2,-9,36,2020-11-12 21:46:02.223
23,-4,-8,-5,0,-14,-3,-12,2020-11-12 21:46:02.228
48,2,-3,3,6,-13,-1,24,2020-11-12 21:46:02.236
55,-3,5,6,-1,11,18,55,2020-11-12 21:46:02.242
55,-3,5,6,-1,11,18,55,2020-11-12 21:46:02.249
-18,-8,-6,-4,-11,5,-11,-36,2020-11-12 21:46:02.255
-52,-9,-2,-1,3,-1,-5,-27,2020-11-12 21:46:02.260
-52,-9,-2,-1,3,-1,-5,-27,2020-11-12 21:46:02.266
-52,-9,-2,-1,3,-1,-5,-27,2020-11-12 21:46:02.272
-52,-9,-2,-1,3,-1,-5,-27,2020-11-12 21:46:02.277
61,19,-1,-3,-3,0,7,8,2020-11-12 21:46:02.285
13,4,3,8,11,31,7,38,2020-11-12 21:46:02.291
13,4,3,8,11,31,7,38,2020-11-12 21:46:02.305
14,-19,-23,-8,-8,-23,-22,-28,2020-11-12 21:46:02.311
-7,-10,-7,-4,0,-4,11,2,2020-11-12 21:46:02.318
11,-4,-1,-4,1,-5,-5,18,2020-11-12 21:46:02.337
67,26,9,1,0,0,2,44,2020-11-12 21:46:02.343
67,26,9,1,0,0,2,44,2020-11-12 21:46:02.350
0,0,-1,4,1,9,6,-2,2020-11-12 21:46:02.355
-10,-7,5,2,3,-12,5,6,2020-11-12 21:46:02.361
-10,-7,5,2,3,-12,5,6,2020-11-12 21:46:02.368
-7,23,9,-1,-5,-15,-19,-32,2020-11-12 21:46:02.374
-16,7,6,9,7,7,6,28,2020-11-12 21:46:02.380
40,-13,-19,-7,-4,-20,-6,-18,2020-11-12 21:46:02.386
40,-13,-19,-7,-4,-20,-6,-18,2020-11-12 21:46:02.392
55,15,11,-6,-6,-9,5,51,2020-11-12 21:46:02.398
55,15,11,-6,-6,-9,5,51,2020-11-12 21:46:02.404
-4,-5,4,0,-1,5,13,1,2020-11-12 21:46:02.410
-4,-5,4,0,-1,5,13,1,2020-11-12 21:46:02.417
-10,20,8,-1,-2,-5,4,-19,2020-11-12 21:46:02.423
-10,20,8,-1,-2,-5,4,-19,2020-11-12 21:46:02.428
13,6,10,-1,3,-9,-4,-16,2020-11-12 21:46:02.435
-53,-3,1,-2,-1,11,-1,-43,2020-11-12 21:46:02.440
-53,-3,1,-2,-1,11,-1,-43,2020-11-12 21:46:02.445
-53,-3,1,-2,-1,11,-1,-43,2020-11-12 21:46:02.452
17,13,-14,-1,2,-6,19,35,2020-11-12 21:46:02.457
18,-27,-10,-5,-4,-4,-8,23,2020-11-12 21:46:02.463
18,-27,-10,-5,-4,-4,-8,23,2020-11-12 21:46:02.469
18,-27,-10,-5,-4,-4,-8,23,2020-11-12 21:46:02.475
79,-4,-13,-12,-10,3,-12,6,2020-11-12 21:46:02.481
79,-4,-13,-12,-10,3,-12,6,2020-11-12 21:46:02.487
-51,-26,-8,-2,-1,-7,-10,-28,2020-11-12 21:46:02.493
-41,-15,9,7,4,11,4,-4,2020-11-12 21:46:02.507
-41,-15,9,7,4,11,4,-4,2020-11-12 21:46:02.512
-25,-4,-13,-3,-15,-19,8,-6,2020-11-12 21:46:02.520
-9,4,2,-1,-4,10,-9,5,2020-11-12 21:46:02.525
-9,4,2,-1,-4,10,-9,5,2020-11-12 21:46:02.532
-9,4,2,-1,-4,10,-9,5,2020-11-12 21:46:02.537
-25,5,1,2,4,20,-4,-1,2020-11-12 21:46:02.543
-25,5,1,2,4,20,-4,-1,2020-11-12 21:46:02.549
29,-4,-15,-12,-6,-21,-17,-3,2020-11-12 21:46:02.555
3,22,20,4,4,21,10,-2,2020-11-12 21:46:02.560
3,22,20,4,4,21,10,-2,2020-11-12 21:46:02.567
3,22,20,4,4,21,10,-2,2020-11-12 21:46:02.573
-47,-19,-2,-5,-4,-13,-18,-41,2020-11-12 21:46:02.579
4,-18,-13,6,3,8,12,33,2020-11-12 21:46:02.585
4,-18,-13,6,3,8,12,33,2020-11-12 21:46:02.591
4,-18,-13,6,3,8,12,33,2020-11-12 21:46:02.597
-10,25,11,1,-2,10,0,-1,2020-11-12 21:46:02.603
-10,25,11,1,-2,10,0,-1,2020-11-12 21:46:02.609
-16,-15,-10,-6,1,-9,1,-12,2020-11-12 21:46:02.616
63,44,12,2,9,11,22,45,2020-11-12 21:46:02.621
63,44,12,2,9,11,22,45,2020-11-12 21:46:02.627
63,44,12,2,9,11,22,45,2020-11-12 21:46:02.634
-27,-3,-2,2,-2,-7,-6,-14,2020-11-12 21:46:02.640
-27,-3,-2,2,-2,-7,-6,-14,2020-11-12 21:46:02.645
-19,-19,-33,-7,-7,-9,-17,-27,2020-11-12 21:46:02.652
-19,-19,-33,-7,-7,-9,-17,-27,2020-11-12 21:46:02.657
-16,11,10,9,6,1,32,77,2020-11-12 21:46:02.663
-40,-32,-10,-6,-2,2,-5,-18,2020-11-12 21:46:02.670
-24,-31,-21,-5,-2,-12,-23,-63,2020-11-12 21:46:02.676
3,13,0,6,0,8,6,9,2020-11-12 21:46:02.683
3,13,0,6,0,8,6,9,2020-11-12 21:46:02.688
3,13,0,6,0,8,6,9,2020-11-12 21:46:02.694
3,13,0,6,0,8,6,9,2020-11-12 21:46:02.709
-17,-1,7,0,0,-2,0,8,2020-11-12 21:46:02.715
13,-22,-14,-3,1,4,-11,-22,2020-11-12 21:46:02.721
13,-22,-14,-3,1,4,-11,-22,2020-11-12 21:46:02.726
12,-25,-13,-1,-10,-10,-22,-34,2020-11-12 21:46:02.733
12,-25,-13,-1,-10,-10,-22,-34,2020-11-12 21:46:02.739
14,40,22,9,6,2,21,33,2020-11-12 21:46:02.745
14,40,22,9,6,2,21,33,2020-11-12 21:46:02.751
4,-15,-9,4,-5,-9,0,-9,2020-11-12 21:46:02.757
-1,-27,-7,-1,-3,-5,-5,-2,2020-11-12 21:46:02.763
-1,-27,-7,-1,-3,-5,-5,-2,2020-11-12 21:46:02.770
-1,-27,-7,-1,-3,-5,-5,-2,2020-11-12 21:46:02.776
-35,-11,3,-2,-3,11,-5,-5,2020-11-12 21:46:02.782
-35,-11,3,-2,-3,11,-5,-5,2020-11-12 21:46:02.788
7,17,13,2,3,21,17,29,2020-11-12 21:46:02.793
7,17,13,2,3,21,17,29,2020-11-12 21:46:02.800
-25,-20,-9,-4,-2,6,-9,-12,2020-11-12 21:46:02.805
-25,-20,-9,-4,-2,6,-9,-12,2020-11-12 21:46:02.811
28,15,7,0,5,0,-2,2,2020-11-12 21:46:02.817
-4,-4,-1,0,-1,-9,-2,-7,2020-11-12 21:46:02.823
-4,-4,-1,0,-1,-9,-2,-7,2020-11-12 21:46:02.829
-4,-4,-1,0,-1,-9,-2,-7,2020-11-12 21:46:02.835
26,-6,-3,0,0,0,-2,-11,2020-11-12 21:46:02.841
26,-6,-3,0,0,0,-2,-11,2020-11-12 21:46:02.846
6,-6,-8,-12,-8,-14,-8,6,2020-11-12 21:46:02.853
6,-6,-8,-12,-8,-14,-8,6,2020-11-12 21:46:02.859
22,5,1,-1,-4,-3,-1,2,2020-11-12 21:46:02.865
22,5,1,-1,-4,-3,-1,2,2020-11-12 21:46:02.871
13,6,3,3,4,-3,-5,-12,2020-11-12 21:46:02.877
-8,-2,-2,-2,-1,10,-4,-14,2020-11-12 21:46:02.883
-8,-2,-2,-2,-1,10,-4,-14,2020-11-12 21:46:02.889
-8,-2,-2,-2,-1,10,-4,-14,2020-11-12 21:46:02.894
-28,-7,-4,-2,-8,-2,-7,-24,2020-11-12 21:46:02.908
17,6,-4,0,-1,-1,-6,-2,2020-11-12 21:46:02.914
17,6,-4,0,-1,-1,-6,-2,2020-11-12 21:46:02.921
43,-8,-3,-5,-1,15,0,9,2020-11-12 21:46:02.926
43,-8,-3,-5,-1,15,0,9,2020-11-12 21:46:02.933
9,1,3,2,-1,-16,2,6,2020-11-12 21:46:02.939
6,3,-3,-2,-5,-4,0,7,2020-11-12 21:46:02.945
6,3,-3,-2,-5,-4,0,7,2020-11-12 21:46:02.950
6,3,-3,-2,-5,-4,0,7,2020-11-12 21:46:02.956
-8,2,-2,-4,-4,-2,-2,-6,2020-11-12 21:46:02.961
-8,2,-2,-4,-4,-2,-2,-6,2020-11-12 21:46:02.968
-18,-12,-1,3,4,-7,-8,-23,2020-11-12 21:46:02.973
-18,-12,-1,3,4,-7,-8,-23,2020-11-12 21:46:02.979
-30,-7,-7,-4,-1,-9,-6,-35,2020-11-12 21:46:02.986
-30,-7,-7,-4,-1,-9,-6,-35,2020-11-12 21:46:02.992
38,11,3,3,5,-9,11,26,2020-11-12 21:46:02.997
-18,1,4,1,-1,1,7,-8,2020-11-12 21:46:03.004
-18,1,4,1,-1,1,7,-8,2020-11-12 21:46:03.010
-18,1,4,1,-1,1,7,-8,2020-11-12 21:46:03.016
6,16,13,2,-1,1,5,18,2020-11-12 21:46:03.022
6,16,13,2,-1,1,5,18,2020-11-12 21:46:03.028
6,16,13,2,-1,1,5,18,2020-11-12 21:46:03.034
6,16,13,2,-1,1,5,18,2020-11-12 21:46:03.040
-40,-5,1,-3,-3,0,-3,-6,2020-11-12 21:46:03.045
-40,-5,1,-3,-3,0,-3,-6,2020-11-12 21:46:03.052
5,25,11,2,0,13,3,17,2020-11-12 21:46:03.058
-2,9,4,-1,-4,-16,-3,-10,2020-11-12 21:46:03.064
-2,9,4,-1,-4,-16,-3,-10,2020-11-12 21:46:03.070
-2,9,4,-1,-4,-16,-3,-10,2020-11-12 21:46:03.076
58,16,0,2,5,-5,8,25,2020-11-12 21:46:03.083
58,16,0,2,5,-5,8,25,2020-11-12 21:46:03.088
-13,-4,-6,-2,-1,0,2,-9,2020-11-12 21:46:03.096
6,-10,-6,0,0,-15,-4,-7,2020-11-12 21:46:03.113
-4,24,7,1,-8,-6,-9,-8,2020-11-12 21:46:03.120
-22,10,14,7,-2,-4,0,6,2020-11-12 21:46:03.126
-22,10,14,7,-2,-4,0,6,2020-11-12 21:46:03.132
-22,10,14,7,-2,-4,0,6,2020-11-12 21:46:03.138
-11,0,-8,-3,2,12,6,4,2020-11-12 21:46:03.144
-11,0,-8,-3,2,12,6,4,2020-11-12 21:46:03.151
-12,-28,-5,-4,-3,1,-15,-29,2020-11-12 21:46:03.156
-12,19,10,5,10,8,24,47,2020-11-12 21:46:03.162
-12,19,10,5,10,8,24,47,2020-11-12 21:46:03.169
-12,19,10,5,10,8,24,47,2020-11-12 21:46:03.175
-24,-6,-1,-3,-2,-3,3,-14,2020-11-12 21:46:03.181
1,-17,-33,-7,-7,-15,-14,-40,2020-11-12 21:46:03.187
1,-17,-33,-7,-7,-15,-14,-40,2020-11-12 21:46:03.193
16,9,6,5,2,4,4,27,2020-11-12 21:46:03.200
1,-39,-14,-3,-3,-2,-4,1,2020-11-12 21:46:03.219
4,-2,17,-1,-2,0,-3,-1,2020-11-12 21:46:03.225
4,-2,17,-1,-2,0,-3,-1,2020-11-12 21:46:03.230
0,8,5,0,0,6,10,30,2020-11-12 21:46:03.237
-7,3,-2,0,1,4,2,-8,2020-11-12 21:46:03.243
-7,3,-2,0,1,4,2,-8,2020-11-12 21:46:03.248
-7,3,-2,0,1,4,2,-8,2020-11-12 21:46:03.254
5,-5,2,-1,-11,-16,-7,-7,2020-11-12 21:46:03.260
-6,1,0,-1,-4,-13,-6,-9,2020-11-12 21:46:03.267
6,18,7,4,9,7,12,26,2020-11-12 21:46:03.273
6,18,7,4,9,7,12,26,2020-11-12 21:46:03.278
1,-8,-4,-4,-6,-12,-9,-9,2020-11-12 21:46:03.286
1,-8,-4,-4,-6,-12,-9,-9,2020-11-12 21:46:03.292
-12,-39,0,1,2,8,-10,-17,2020-11-12 21:46:03.298
-11,6,22,-5,2,26,1,3,2020-11-12 21:46:03.312
-9,6,11,1,1,-4,-4,-16,2020-11-12 21:46:03.319
-9,6,11,1,1,-4,-4,-16,2020-11-12 21:46:03.325
-9,6,11,1,1,-4,-4,-16,2020-11-12 21:46:03.330
-9,6,11,1,1,-4,-4,-16,2020-11-12 21:46:03.336
-1,13,5,6,7,-2,6,4,2020-11-12 21:46:03.342
9,13,0,1,-3,-14,1,17,2020-11-12 21:46:03.347
9,13,0,1,-3,-14,1,17,2020-11-12 21:46:03.354
-27,-24,-22,-8,-3,-3,-8,-14,2020-11-12 21:46:03.360
-9,5,9,-4,-1,4,4,19,2020-11-12 21:46:03.366
-9,5,9,-4,-1,4,4,19,2020-11-12 21:46:03.372
32,16,11,-1,2,4,-6,-3,2020-11-12 21:46:03.378
32,16,11,-1,2,4,-6,-3,2020-11-12 21:46:03.384
32,16,11,-1,2,4,-6,-3,2020-11-12 21:46:03.390
-39,-45,-39,-5,-2,2,-6,-10,2020-11-12 21:46:03.395
19,10,3,3,2,9,8,11,2020-11-12 21:46:03.402
19,10,3,3,2,9,8,11,2020-11-12 21:46:03.407
19,10,3,3,2,9,8,11,2020-11-12 21:46:03.413
19,10,3,3,2,9,8,11,2020-11-12 21:46:03.420
12,-23,-19,-5,-4,2,-12,-17,2020-11-12 21:46:03.426
30,15,2,3,4,2,8,6,2020-11-12 21:46:03.433
18,15,-6,0,1,11,-2,-3,2020-11-12 21:46:03.438
18,15,-6,0,1,11,-2,-3,2020-11-12 21:46:03.444
18,15,-6,0,1,11,-2,-3,2020-11-12 21:46:03.450
2,-19,-2,-5,-3,-7,-15,-15,2020-11-12 21:46:03.456
26,2,-7,-4,-5,-4,-3,2,2020-11-12 21:46:03.462
26,2,-7,-4,-5,-4,-3,2,2020-11-12 21:46:03.468
26,2,-7,-4,-5,-4,-3,2,2020-11-12 21:46:03.474
26,2,-7,-4,-5,-4,-3,2,2020-11-12 21:46:03.479
26,2,-7,-4,-5,-4,-3,2,2020-11-12 21:46:03.486
-22,-4,-3,-2,-4,-2,2,-12,2020-11-12 21:46:03.492
-58,3,10,2,2,6,4,-24,2020-11-12 21:46:03.498
-58,3,10,2,2,6,4,-24,2020-11-12 21:46:03.512
13,2,-8,-1,0,2,3,50,2020-11-12 21:46:03.518
-28,-1,3,3,8,9,13,-2,2020-11-12 21:46:03.524
-28,-1,3,3,8,9,13,-2,2020-11-12 21:46:03.530
23,-3,-4,-3,-2,-1,-11,-5,2020-11-12 21:46:03.536
13,7,0,-1,5,1,4,4,2020-11-12 21:46:03.542
13,7,0,-1,5,1,4,4,2020-11-12 21:46:03.548
13,7,0,-1,5,1,4,4,2020-11-12 21:46:03.555
-18,-11,-2,-1,-4,-4,0,-10,2020-11-12 21:46:03.561
-1,-1,0,-2,-3,0,-6,-24,2020-11-12 21:46:03.567
-1,-1,0,-2,-3,0,-6,-24,2020-11-12 21:46:03.573
-1,-1,0,-2,-3,0,-6,-24,2020-11-12 21:46:03.578
-29,5,7,1,-4,-2,-10,-29,2020-11-12 21:46:03.585
-29,5,7,1,-4,-2,-10,-29,2020-11-12 21:46:03.591
16,10,-16,-7,-1,1,9,16,2020-11-12 21:46:03.596
16,10,-16,-7,-1,1,9,16,2020-11-12 21:46:03.603
13,-5,3,3,4,1,-1,14,2020-11-12 21:46:03.608
13,-5,3,3,4,1,-1,14,2020-11-12 21:46:03.614
19,-21,-6,2,-2,-10,-15,20,2020-11-12 21:46:03.621
45,20,12,4,3,2,8,23,2020-11-12 21:46:03.626
45,20,12,4,3,2,8,23,2020-11-12 21:46:03.632
45,20,12,4,3,2,8,23,2020-11-12 21:46:03.638
-29,1,-4,-1,-1,-3,-7,-11,2020-11-12 21:46:03.644
-29,1,-4,-1,-1,-3,-7,-11,2020-11-12 21:46:03.651
-38,-11,-3,-1,1,3,0,-6,2020-11-12 21:46:03.656
-38,-11,-3,-1,1,3,0,-6,2020-11-12 21:46:03.662
16,14,10,2,-4,1,-2,10,2020-11-12 21:46:03.668
16,14,10,2,-4,1,-2,10,2020-11-12 21:46:03.674
-10,-1,2,0,-1,6,-2,-23,2020-11-12 21:46:03.680
30,6,-2,-3,-2,0,-3,10,2020-11-12 21:46:03.686
30,6,-2,-3,-2,0,-3,10,2020-11-12 21:46:03.692
30,6,-2,-3,-2,0,-3,10,2020-11-12 21:46:03.697
-10,-17,-7,-1,-2,2,-4,-25,2020-11-12 21:46:03.703
-10,-17,-7,-1,-2,2,-4,-25,2020-11-12 21:46:03.717
17,7,4,-2,0,0,-1,-21,2020-11-12 21:46:03.722
-41,-12,1,-1,-2,1,-4,-25,2020-11-12 21:46:03.728
-41,-12,1,-1,-2,1,-4,-25,2020-11-12 21:46:03.735
-1,-6,-7,-1,-2,-4,-3,1,2020-11-12 21:46:03.741
-20,-20,-8,0,0,0,-1,-16,2020-11-12 21:46:03.747
-20,-20,-8,0,0,0,-1,-16,2020-11-12 21:46:03.753
-20,-20,-8,0,0,0,-1,-16,2020-11-12 21:46:03.759
-40,-11,-15,-6,-9,-3,-7,-16,2020-11-12 21:46:03.765
-40,-11,-15,-6,-9,-3,-7,-16,2020-11-12 21:46:03.772
-49,-2,4,2,0,3,5,-9,2020-11-12 21:46:03.778
-18,0,0,-4,-3,4,4,13,2020-11-12 21:46:03.785
-18,0,0,-4,-3,4,4,13,2020-11-12 21:46:03.790
-18,0,0,-4,-3,4,4,13,2020-11-12 21:46:03.796
10,-26,-9,-3,-6,-7,-13,-12,2020-11-12 21:46:03.802
29,26,12,4,3,5,14,27,2020-11-12 21:46:03.807
29,26,12,4,3,5,14,27,2020-11-12 21:46:03.813
29,26,12,4,3,5,14,27,2020-11-12 21:46:03.820
5,21,16,4,3,-1,5,-6,2020-11-12 21:46:03.826
5,21,16,4,3,-1,5,-6,2020-11-12 21:46:03.832
-2,6,5,-4,-3,-3,10,1,2020-11-12 21:46:03.838
-11,-18,-7,-3,-3,-6,-12,-19,2020-11-12 21:46:03.844
-11,-18,-7,-3,-3,-6,-12,-19,2020-11-12 21:46:03.850
-11,-18,-7,-3,-3,-6,-12,-19,2020-11-12 21:46:03.856
29,24,6,1,-3,-1,8,14,2020-11-12 21:46:03.862
34,13,5,0,1,-1,8,26,2020-11-12 21:46:03.868
34,13,5,0,1,-1,8,26,2020-11-12 21:46:03.874
34,13,5,0,1,-1,8,26,2020-11-12 21:46:03.880
27,-11,-7,3,1,6,-6,-6,2020-11-12 21:46:03.886
27,-11,-7,3,1,6,-6,-6,2020-11-12 21:46:03.892
8,30,24,2,0,-3,-8,-13,2020-11-12 21:46:03.897
8,30,24,2,0,-3,-8,-13,2020-11-12 21:46:03.904
-5,14,9,5,5,2,16,46,2020-11-12 21:46:03.918
-16,5,-6,-1,1,0,-1,-10,2020-11-12 21:46:03.923
-27,22,7,-6,-2,-3,-5,-14,2020-11-12 21:46:03.929
-27,22,7,-6,-2,-3,-5,-14,2020-11-12 21:46:03.936
1,-4,-3,1,0,0,1,2,2020-11-12 21:46:03.942
-31,-22,-14,-4,-6,0,-3,-25,2020-11-12 21:46:03.947
-31,-22,-14,-4,-6,0,-3,-25,2020-11-12 21:46:03.954
14,-5,-2,1,-4,-4,-4,4,2020-11-12 21:46:03.960
-1,-18,-7,-1,1,3,-7,-16,2020-11-12 21:46:03.966
-1,-18,-7,-1,1,3,-7,-16,2020-11-12 21:46:03.972
0,3,-2,-5,1,5,13,23,2020-11-12 21:46:03.978
0,3,-2,-5,1,5,13,23,2020-11-12 21:46:03.984
4,-10,-5,-4,-5,-9,-12,-23,2020-11-12 21:46:03.990
4,-10,-5,-4,-5,-9,-12,-23,2020-11-12 21:46:03.996
8,5,2,4,7,3,2,12,2020-11-12 21:46:04.002
-8,-14,-8,-5,-6,-13,0,-12,2020-11-12 21:46:04.008
-8,-14,-8,-5,-6,-13,0,-12,2020-11-12 21:46:04.014
-9,-3,2,4,1,1,-5,-11,2020-11-12 21:46:04.021
22,4,3,1,3,0,-10,6,2020-11-12 21:46:04.027
22,4,3,1,3,0,-10,6,2020-11-12 21:46:04.034
-15,-6,-1,2,3,6,-1,-21,2020-11-12 21:46:04.040
-26,-17,-16,-7,-5,-6,0,-19,2020-11-12 21:46:04.045
-26,-17,-16,-7,-5,-6,0,-19,2020-11-12 21:46:04.052
-26,-17,-16,-7,-5,-6,0,-19,2020-11-12 21:46:04.057
-6,0,1,1,6,-2,-4,7,2020-11-12 21:46:04.063
-6,0,1,1,6,-2,-4,7,2020-11-12 21:46:04.070
-1,-7,-6,-6,-6,3,2,-7,2020-11-12 21:46:04.076
-1,-7,-6,-6,-6,3,2,-7,2020-11-12 21:46:04.082
20,8,11,0,4,5,5,5,2020-11-12 21:46:04.089
20,8,11,0,4,5,5,5,2020-11-12 21:46:04.110
1,-18,4,9,2,2,-2,1,2020-11-12 21:46:04.124
4,4,3,4,0,-6,-8,7,2020-11-12 21:46:04.130
16,0,0,-2,-3,-8,1,-1,2020-11-12 21:46:04.136
16,0,0,-2,-3,-8,1,-1,2020-11-12 21:46:04.142
-2,0,-5,-3,-6,2,3,1,2020-11-12 21:46:04.147
-2,0,-5,-3,-6,2,3,1,2020-11-12 21:46:04.155
30,-5,-5,-1,7,5,0,10,2020-11-12 21:46:04.160
23,0,-9,-5,-6,-4,-8,-1,2020-11-12 21:46:04.166
23,0,-9,-5,-6,-4,-8,-1,2020-11-12 21:46:04.172
23,0,-9,-5,-6,-4,-8,-1,2020-11-12 21:46:04.177
36,29,19,7,9,9,21,55,2020-11-12 21:46:04.183
-10,6,0,-1,2,1,-3,-7,2020-11-12 21:46:04.189
-37,-21,-14,-5,-7,2,-5,-31,2020-11-12 21:46:04.195
-37,-21,-14,-5,-7,2,-5,-31,2020-11-12 21:46:04.201
18,2,0,-5,-10,1,7,10,2020-11-12 21:46:04.206
18,2,0,-5,-10,1,7,10,2020-11-12 21:46:04.212
-15,-8,-4,1,-6,-8,2,-9,2020-11-12 21:46:04.220
-4,0,7,0,6,2,0,0,2020-11-12 21:46:04.225
-4,0,7,0,6,2,0,0,2020-11-12 21:46:04.231
-4,0,7,0,6,2,0,0,2020-11-12 21:46:04.238
-18,-2,-4,0,-6,-2,-9,-12,2020-11-12 21:46:04.244
-8,13,8,3,3,8,5,2,2020-11-12 21:46:04.250
-3,-6,-5,-1,4,-2,-1,-3,2020-11-12 21:46:04.256
-3,-6,-5,-1,4,-2,-1,-3,2020-11-12 21:46:04.262
-5,-17,-11,-3,-5,-3,-3,-15,2020-11-12 21:46:04.268
-5,-17,-11,-3,-5,-3,-3,-15,2020-11-12 21:46:04.274
3,-1,2,2,-3,-2,1,-1,2020-11-12 21:46:04.280
3,-1,2,2,-3,-2,1,-1,2020-11-12 21:46:04.287
4,0,-3,3,7,7,0,-1,2020-11-12 21:46:04.293
4,0,-3,3,7,7,0,-1,2020-11-12 21:46:04.299
-7,-3,0,0,0,-2,2,18,2020-11-12 21:46:04.306
-15,-4,-3,-3,-3,-6,-1,-6,2020-11-12 21:46:04.312
-15,-4,-3,-3,-3,-6,-1,-6,2020-11-12 21:46:04.326
13,3,-6,-1,-2,3,3,8,2020-11-12 21:46:04.332
1,3,4,0,-3,-2,-3,-4,2020-11-12 21:46:04.339
1,3,4,0,-3,-2,-3,-4,2020-11-12 21:46:04.344
-9,1,-3,-1,-1,1,-4,2,2020-11-12 21:46:04.351
-9,1,-3,-1,-1,1,-4,2,2020-11-12 21:46:04.356
14,2,0,-1,6,8,0,11,2020-11-12 21:46:04.362
-32,-24,-9,-6,-5,-8,-8,-34,2020-11-12 21:46:04.368
-32,-24,-9,-6,-5,-8,-8,-34,2020-11-12 21:46:04.374
-32,-24,-9,-6,-5,-8,-8,-34,2020-11-12 21:46:04.380
-32,-24,-9,-6,-5,-8,-8,-34,2020-11-12 21:46:04.386
14,33,27,6,1,2,18,38,2020-11-12 21:46:04.393
-8,-15,-11,-4,-3,-11,-14,-25,2020-11-12 21:46:04.398
-8,-15,-11,-4,-3,-11,-14,-25,2020-11-12 21:46:04.405
0,1,1,2,8,6,6,0,2020-11-12 21:46:04.411
0,1,1,2,8,6,6,0,2020-11-12 21:46:04.418
-10,-19,-11,-7,-3,-2,-2,-5,2020-11-12 21:46:04.424
2,-1,0,0,-1,-2,-2,1,2020-11-12 21:46:04.429
2,-1,0,0,-1,-2,-2,1,2020-11-12 21:46:04.436
2,-1,0,0,-1,-2,-2,1,2020-11-12 21:46:04.441
-1,5,0,-3,-4,-5,-2,5,2020-11-12 21:46:04.447
-1,5,0,-3,-4,-5,-2,5,2020-11-12 21:46:04.453
47,-2,-7,-3,-3,-4,-4,-9,2020-11-12 21:46:04.459
1,2,0,3,2,-1,7,15,2020-11-12 21:46:04.464
1,2,0,3,2,-1,7,15,2020-11-12 21:46:04.471
1,2,0,3,2,-1,7,15,2020-11-12 21:46:04.476
4,17,6,1,3,5,11,21,2020-11-12 21:46:04.482
-2,-7,-2,-1,-3,-7,0,-1,2020-11-12 21:46:04.489
-2,-7,-2,-1,-3,-7,0,-1,2020-11-12 21:46:04.494
-2,-7,-2,-1,-3,-7,0,-1,2020-11-12 21:46:04.501
3,-2,-2,0,-3,-4,-5,7,2020-11-12 21:46:04.507
3,-2,-2,0,-3,-4,-5,7,2020-11-12 21:46:04.514
-21,-8,-6,-1,-2,-4,-8,-12,2020-11-12 21:46:04.528
7,4,-7,-10,-2,1,-2,3,2020-11-12 21:46:04.534
7,4,-7,-10,-2,1,-2,3,2020-11-12 21:46:04.540
-4,-4,-4,0,-1,-2,3,3,2020-11-12 21:46:04.546
26,6,2,-3,-3,-3,-5,1,2020-11-12 21:46:04.553
26,6,2,-3,-3,-3,-5,1,2020-11-12 21:46:04.559
1,1,1,0,0,2,0,9,2020-11-12 21:46:04.565
4,8,7,3,-1,3,-1,14,2020-11-12 21:46:04.571
4,8,7,3,-1,3,-1,14,2020-11-12 21:46:04.577
-16,-9,-5,0,-1,1,0,-6,2020-11-12 21:46:04.583
6,2,-2,-3,-5,0,-2,-2,2020-11-12 21:46:04.588
6,2,-2,-3,-5,0,-2,-2,2020-11-12 21:46:04.594
-8,-9,-5,0,0,-3,-5,-4,2020-11-12 21:46:04.601
-9,0,2,2,0,-2,-1,-2,2020-11-12 21:46:04.606
-9,0,2,2,0,-2,-1,-2,2020-11-12 21:46:04.612
-9,0,2,2,0,-2,-1,-2,2020-11-12 21:46:04.619
-4,2,1,1,0,-5,-1,2,2020-11-12 21:46:04.624
-4,2,1,1,0,-5,-1,2,2020-11-12 21:46:04.630
-4,2,1,1,0,-5,-1,2,2020-11-12 21:46:04.636
-3,-1,-1,-4,-3,-1,-4,-1,2020-11-12 21:46:04.642
-1,2,1,0,3,2,13,-6,2020-11-12 21:46:04.647
-1,2,1,0,3,2,13,-6,2020-11-12 21:46:04.654
39,13,4,0,0,5,7,51,2020-11-12 21:46:04.660
-5,-2,0,0,-1,-3,-9,7,2020-11-12 21:46:04.666
-5,-2,0,0,-1,-3,-9,7,2020-11-12 21:46:04.673
14,3,2,-1,2,3,9,45,2020-11-12 21:46:04.678
-11,-5,-5,-4,-4,0,-2,-17,2020-11-12 21:46:04.685
-8,-2,-2,-1,-2,7,-4,-12,2020-11-12 21:46:04.691
-14,3,3,0,0,-6,-12,-24,2020-11-12 21:46:04.697
-14,3,3,0,0,-6,-12,-24,2020-11-12 21:46:04.704
36,10,4,2,1,6,12,30,2020-11-12 21:46:04.709
36,10,4,2,1,6,12,30,2020-11-12 21:46:04.715
-14,-9,-4,1,0,5,-4,-14,2020-11-12 21:46:04.730
-41,-5,9,1,0,-6,-9,-27,2020-11-12 21:46:04.736
-41,-5,9,1,0,-6,-9,-27,2020-11-12 21:46:04.742
-19,-18,-9,1,4,4,0,-3,2020-11-12 21:46:04.747
-19,-18,-9,1,4,4,0,-3,2020-11-12 21:46:04.754
16,-9,-5,-2,-5,-2,1,12,2020-11-12 21:46:04.760
18,11,1,0,-3,-3,-8,-15,2020-11-12 21:46:04.766
18,11,1,0,-3,-3,-8,-15,2020-11-12 21:46:04.773
18,11,1,0,-3,-3,-8,-15,2020-11-12 21:46:04.779
15,4,7,3,8,3,7,15,2020-11-12 21:46:04.785
-30,-10,-8,-3,3,6,-7,-36,2020-11-12 21:46:04.791
-30,-10,-8,-3,3,6,-7,-36,2020-11-12 21:46:04.797
-30,-10,-8,-3,3,6,-7,-36,2020-11-12 21:46:04.804
-51,-18,-7,-5,-7,-1,-9,-39,2020-11-12 21:46:04.810
-51,-18,-7,-5,-7,-1,-9,-39,2020-11-12 21:46:04.815
29,8,5,3,5,5,6,29,2020-11-12 21:46:04.822
-58,1,2,-1,-6,-7,-5,-6,2020-11-12 21:46:04.827
-58,1,2,-1,-6,-7,-5,-6,2020-11-12 21:46:04.833
-58,1,2,-1,-6,-7,-5,-6,2020-11-12 21:46:04.839
32,1,-14,-9,-5,-10,-6,-4,2020-11-12 21:46:04.845
57,17,9,7,6,6,12,42,2020-11-12 21:46:04.852
57,17,9,7,6,6,12,42,2020-11-12 21:46:04.857
57,17,9,7,6,6,12,42,2020-11-12 21:46:04.863
57,17,9,7,6,6,12,42,2020-11-12 21:46:04.870
1,0,-1,-3,-2,-11,-3,-2,2020-11-12 21:46:04.876
4,-4,-1,1,1,1,-3,-1,2020-11-12 21:46:04.882
-4,6,-1,-3,2,1,-3,-14,2020-11-12 21:46:04.889
-4,6,-1,-3,2,1,-3,-14,2020-11-12 21:46:04.895
-37,-7,-2,-3,-6,-3,3,12,2020-11-12 21:46:04.902
38,-7,-3,4,1,-2,-2,26,2020-11-12 21:46:04.907
38,-7,-3,4,1,-2,-2,26,2020-11-12 21:46:04.913
38,-7,-3,4,1,-2,-2,26,2020-11-12 21:46:04.920
15,-5,-5,-2,-3,-3,-5,1,2020-11-12 21:46:04.934
-6,-1,0,-3,-6,0,-2,6,2020-11-12 21:46:04.940
-6,-1,0,-3,-6,0,-2,6,2020-11-12 21:46:04.945
-3,-1,-2,-1,-4,-1,0,-5,2020-11-12 21:46:04.951
-3,-1,-2,-1,-4,-1,0,-5,2020-11-12 21:46:04.957
-5,5,2,-1,2,2,4,3,2020-11-12 21:46:04.963
-4,-8,-5,-6,-3,-2,-5,-5,2020-11-12 21:46:04.969
-4,-8,-5,-6,-3,-2,-5,-5,2020-11-12 21:46:04.974
-4,-8,-5,-6,-3,-2,-5,-5,2020-11-12 21:46:04.980
10,4,1,0,-9,-3,-2,-13,2020-11-12 21:46:04.986
10,4,1,0,-9,-3,-2,-13,2020-11-12 21:46:04.992
-9,-8,-5,0,2,1,-5,-16,2020-11-12 21:46:04.998
-9,-8,-5,0,2,1,-5,-16,2020-11-12 21:46:05.022
30,11,3,-3,-1,-1,2,5,2020-11-12 21:46:05.027
30,11,3,-3,-1,-1,2,5,2020-11-12 21:46:05.033
30,11,3,-3,-1,-1,2,5,2020-11-12 21:46:05.040
15,20,5,0,-2,-2,-3,12,2020-11-12 21:46:05.046
15,20,5,0,-2,-2,-3,12,2020-11-12 21:46:05.052
28,9,3,0,0,1,5,5,2020-11-12 21:46:05.058
28,9,3,0,0,1,5,5,2020-11-12 21:46:05.063
-21,-14,-2,1,-4,-3,-1,-11,2020-11-12 21:46:05.070
-21,-14,-2,1,-4,-3,-1,-11,2020-11-12 21:46:05.076
6,2,4,2,5,1,-2,-3,2020-11-12 21:46:05.082
-19,-17,-8,-5,-3,-7,-7,-29,2020-11-12 21:46:05.088
-19,-17,-8,-5,-3,-7,-7,-29,2020-11-12 21:46:05.094
-19,-17,-8,-5,-3,-7,-7,-29,2020-11-12 21:46:05.101
-47,-17,-10,-3,-3,-4,-13,-23,2020-11-12 21:46:05.106
-47,-17,-10,-3,-3,-4,-13,-23,2020-11-12 21:46:05.112
15,-1,-5,-12,-5,-1,-2,-2,2020-11-12 21:46:05.119
15,-1,-5,-12,-5,-1,-2,-2,2020-11-12 21:46:05.125
26,8,0,0,3,2,4,21,2020-11-12 21:46:05.138
12,-4,-3,-2,-4,-7,-11,2,2020-11-12 21:46:05.144
0,-1,-1,0,-2,0,7,20,2020-11-12 21:46:05.150
0,-1,-1,0,-2,0,7,20,2020-11-12 21:46:05.156
0,-1,-1,0,-2,0,7,20,2020-11-12 21:46:05.162
-29,-17,-5,1,-8,-7,-6,-30,2020-11-12 21:46:05.169
4,2,1,1,1,0,0,2,2020-11-12 21:46:05.175
4,2,1,1,1,0,0,2,2020-11-12 21:46:05.182
-16,-13,-8,-4,-4,-9,-25,-29,2020-11-12 21:46:05.189
-16,-13,-8,-4,-4,-9,-25,-29,2020-11-12 21:46:05.195
-9,7,2,-3,-2,-1,-3,2,2020-11-12 21:46:05.202
7,-7,-4,-1,-1,-1,9,14,2020-11-12 21:46:05.207
7,-7,-4,-1,-1,-1,9,14,2020-11-12 21:46:05.214
7,-7,-4,-1,-1,-1,9,14,2020-11-12 21:46:05.221
-3,-3,-2,0,7,1,5,5,2020-11-12 21:46:05.226
2,13,8,-1,1,3,15,15,2020-11-12 21:46:05.232
2,13,8,-1,1,3,15,15,2020-11-12 21:46:05.239
2,13,8,-1,1,3,15,15,2020-11-12 21:46:05.245
-29,-3,-1,-3,-1,-7,1,-7,2020-11-12 21:46:05.252
-29,-3,-1,-3,-1,-7,1,-7,2020-11-12 21:46:05.258
20,11,5,3,3,4,6,4,2020-11-12 21:46:05.265
-19,-8,-2,4,1,-1,-8,-21,2020-11-12 21:46:05.272
-19,-8,-2,4,1,-1,-8,-21,2020-11-12 21:46:05.278
-42,-12,-4,0,-2,-1,-2,-13,2020-11-12 21:46:05.286
-42,-12,-4,0,-2,-1,-2,-13,2020-11-12 21:46:05.293
13,-2,-2,1,4,2,-1,-2,2020-11-12 21:46:05.298
13,-2,-2,1,4,2,-1,-2,2020-11-12 21:46:05.307
11,10,6,1,-2,6,11,13,2020-11-12 21:46:05.314
11,10,6,1,-2,6,11,13,2020-11-12 21:46:05.322
12,6,1,-3,-2,-21,-9,-6,2020-11-12 21:46:05.328
12,6,1,-3,-2,-21,-9,-6,2020-11-12 21:46:05.344
12,4,3,-1,4,5,-1,6,2020-11-12 21:46:05.348
-2,-2,-5,-3,2,-4,-10,-7,2020-11-12 21:46:05.356
-2,-2,-5,-3,2,-4,-10,-7,2020-11-12 21:46:05.363
-5,-4,1,3,-1,-15,6,2,2020-11-12 21:46:05.371
-5,-4,1,3,-1,-15,6,2,2020-11-12 21:46:05.377
9,2,2,1,2,20,6,11,2020-11-12 21:46:05.385
8,4,-2,2,-1,14,15,14,2020-11-12 21:46:05.392
8,4,-2,2,-1,14,15,14,2020-11-12 21:46:05.399
-6,-2,-4,-2,1,-5,-2,-7,2020-11-12 21:46:05.406
1,-1,0,0,-4,3,4,11,2020-11-12 21:46:05.414
1,-1,0,0,-4,3,4,11,2020-11-12 21:46:05.423
6,2,-3,-3,-4,3,5,0,2020-11-12 21:46:05.430
6,2,-3,-3,-4,3,5,0,2020-11-12 21:46:05.437
4,1,3,2,-1,1,2,6,2020-11-12 21:46:05.443
-5,-1,-2,0,-6,-10,-10,-13,2020-11-12 21:46:05.450
-5,-1,-2,0,-6,-10,-10,-13,2020-11-12 21:46:05.458
-4,0,-1,-1,-1,-3,-7,-5,2020-11-12 21:46:05.465
-4,-2,2,2,2,1,-3,-6,2020-11-12 21:46:05.472
-4,-2,2,2,2,1,-3,-6,2020-11-12 21:46:05.478
-4,-2,2,2,2,1,-3,-6,2020-11-12 21:46:05.485
2,8,4,2,-3,-7,-5,1,2020-11-12 21:46:05.492
-2,1,2,-1,-7,-7,-9,-8,2020-11-12 21:46:05.500
-1,-5,-2,0,-4,-2,1,0,2020-11-12 21:46:05.506
1,0,-3,-1,3,0,-3,2,2020-11-12 21:46:05.513
1,0,-3,-1,3,0,-3,2,2020-11-12 21:46:05.522
6,4,-1,-2,3,1,5,10,2020-11-12 21:46:05.529
-7,-9,-5,-3,3,9,-5,-7,2020-11-12 21:46:05.543
-7,-9,-5,-3,3,9,-5,-7,2020-11-12 21:46:05.548
-9,-2,-1,-2,-2,16,-2,-8,2020-11-12 21:46:05.555
21,8,1,-3,-9,-13,2,25,2020-11-12 21:46:05.562
21,8,1,-3,-9,-13,2,25,2020-11-12 21:46:05.568
-20,-5,-2,0,-4,-3,4,-4,2020-11-12 21:46:05.574
-20,-5,-2,0,-4,-3,4,-4,2020-11-12 21:46:05.580
-1,-1,-2,-5,-12,-14,-1,-12,2020-11-12 21:46:05.587
18,7,-2,0,1,2,4,14,2020-11-12 21:46:05.593
18,7,-2,0,1,2,4,14,2020-11-12 21:46:05.598
18,7,-2,0,1,2,4,14,2020-11-12 21:46:05.606
10,6,3,2,-1,6,-4,10,2020-11-12 21:46:05.612
10,6,3,2,-1,6,-4,10,2020-11-12 21:46:05.617
17,12,6,2,11,6,6,-2,2020-11-12 21:46:05.624
-22,-3,-1,3,1,5,1,-2,2020-11-12 21:46:05.630
-22,-3,-1,3,1,5,1,-2,2020-11-12 21:46:05.636
-22,-3,-1,3,1,5,1,-2,2020-11-12 21:46:05.642
-13,-3,3,1,2,-8,0,3,2020-11-12 21:46:05.647
1,-1,1,-5,-2,-9,-1,3,2020-11-12 21:46:05.654
1,-1,1,-5,-2,-9,-1,3,2020-11-12 21:46:05.660
-9,-10,-10,-4,-10,-21,-10,-17,2020-11-12 21:46:05.665
9,8,11,1,4,0,2,8,2020-11-12 21:46:05.672
9,8,11,1,4,0,2,8,2020-11-12 21:46:05.677
11,1,1,1,3,-1,0,9,2020-11-12 21:46:05.683
-2,-10,-10,0,-4,-4,-6,-12,2020-11-12 21:46:05.690
-2,-10,-10,0,-4,-4,-6,-12,2020-11-12 21:46:05.696
-2,-10,-10,0,-4,-4,-6,-12,2020-11-12 21:46:05.703
-3,6,5,2,1,3,-3,3,2020-11-12 21:46:05.708
22,10,2,3,5,11,8,-15,2020-11-12 21:46:05.714
22,10,2,3,5,11,8,-15,2020-11-12 21:46:05.721
-4,-11,-4,-4,-1,0,-3,-18,2020-11-12 21:46:05.727
1,5,2,-5,-6,-2,-5,0,2020-11-12 21:46:05.733
16,-19,1,2,-5,-9,-7,1,2020-11-12 21:46:05.748
8,5,-1,-2,-8,-14,-7,-5,2020-11-12 21:46:05.755
8,5,-1,-2,-8,-14,-7,-5,2020-11-12 21:46:05.760
8,5,-1,-2,-8,-14,-7,-5,2020-11-12 21:46:05.766
6,2,11,3,-4,-7,-6,-2,2020-11-12 21:46:05.773
0,1,-9,-3,8,12,5,8,2020-11-12 21:46:05.778
0,1,-9,-3,8,12,5,8,2020-11-12 21:46:05.785
4,0,5,0,1,5,-2,7,2020-11-12 21:46:05.791
4,0,5,0,1,5,-2,7,2020-11-12 21:46:05.796
9,0,3,3,2,-2,4,5,2020-11-12 21:46:05.803
-10,-10,-4,1,-2,-1,-4,-14,2020-11-12 21:46:05.808
-10,-10,-4,1,-2,-1,-4,-14,2020-11-12 21:46:05.814
-10,-10,-4,1,-2,-1,-4,-14,2020-11-12 21:46:05.821
14,0,-2,-1,-2,-9,-7,6,2020-11-12 21:46:05.827
-9,-4,2,-2,-3,-1,0,-4,2020-11-12 21:46:05.833
-9,-4,2,-2,-3,-1,0,-4,2020-11-12 21:46:05.840
-9,-4,2,-2,-3,-1,0,-4,2020-11-12 21:46:05.845
-6,0,0,-1,1,1,0,-4,2020-11-12 21:46:05.851
-6,0,0,-1,1,1,0,-4,2020-11-12 21:46:05.857
4,-5,-3,-2,1,12,2,7,2020-11-12 21:46:05.863
1,1,-1,-1,-2,-7,0,4,2020-11-12 21:46:05.870
1,1,-1,-1,-2,-7,0,4,2020-11-12 21:46:05.876
1,1,-1,-1,-2,-7,0,4,2020-11-12 21:46:05.881
2,1,2,-1,1,-9,0,-2,2020-11-12 21:46:05.888
2,-3,1,0,1,0,3,8,2020-11-12 21:46:05.893
2,-3,1,0,1,0,3,8,2020-11-12 21:46:05.899
2,-3,1,0,1,0,3,8,2020-11-12 21:46:05.906
7,0,-1,-1,-2,5,8,23,2020-11-12 21:46:05.912
7,0,-1,-1,-2,5,8,23,2020-11-12 21:46:05.918
7,0,-1,-1,-2,5,8,23,2020-11-12 21:46:05.923
-1,-1,-1,1,1,4,0,-13,2020-11-12 21:46:05.930
-6,-3,-2,-4,-2,1,-2,-6,2020-11-12 21:46:05.936
-6,-3,-2,-4,-2,1,-2,-6,2020-11-12 21:46:05.950
1,-2,-3,-3,-2,1,-4,-3,2020-11-12 21:46:05.956
1,-2,-3,-3,-2,1,-4,-3,2020-11-12 21:46:05.962
9,11,6,3,3,0,15,31,2020-11-12 21:46:05.968
9,11,6,3,3,0,15,31,2020-11-12 21:46:05.975
9,11,6,3,3,0,15,31,2020-11-12 21:46:05.997
51,45,23,12,17,10,24,43,2020-11-12 21:46:06.003
-37,-46,-7,1,0,6,-5,-6,2020-11-12 21:46:06.009
-16,-28,-13,-9,-4,-3,-15,-34,2020-11-12 21:46:06.015
-16,-28,-13,-9,-4,-3,-15,-34,2020-11-12 21:46:06.023
-13,-4,0,3,1,0,-3,-9,2020-11-12 21:46:06.028
-13,-4,0,3,1,0,-3,-9,2020-11-12 21:46:06.034
-13,-4,0,3,1,0,-3,-9,2020-11-12 21:46:06.041
-13,-4,0,3,1,0,-3,-9,2020-11-12 21:46:06.046
9,8,0,-1,-3,-2,-3,6,2020-11-12 21:46:06.052
9,8,0,-1,-3,-2,-3,6,2020-11-12 21:46:06.058
9,8,0,-1,-3,-2,-3,6,2020-11-12 21:46:06.064
9,8,0,-1,-3,-2,-3,6,2020-11-12 21:46:06.070
-6,1,2,1,1,5,-5,-30,2020-11-12 21:46:06.076
0,-4,-3,-1,-2,-1,-11,-4,2020-11-12 21:46:06.082
0,4,2,0,-9,-3,1,-7,2020-11-12 21:46:06.089
-7,-4,-2,-2,-3,-1,-1,-20,2020-11-12 21:46:06.094
-7,-4,-2,-2,-3,-1,-1,-20,2020-11-12 21:46:06.100
-7,-4,-2,-2,-3,-1,-1,-20,2020-11-12 21:46:06.107
1,-3,-2,-4,-10,-7,-3,-4,2020-11-12 21:46:06.113
1,-3,-2,-4,-10,-7,-3,-4,2020-11-12 21:46:06.118
1,-3,-2,-4,-10,-7,-3,-4,2020-11-12 21:46:06.125
1,-3,-2,-4,-10,-7,-3,-4,2020-11-12 21:46:06.131
1,-3,-2,-4,-10,-7,-3,-4,2020-11-12 21:46:06.137
2,4,2,5,4,12,13,9,2020-11-12 21:46:06.151
2,1,0,4,5,2,0,4,2020-11-12 21:46:06.157
-1,0,-2,1,6,-3,-2,-5,2020-11-12 21:46:06.164
-1,0,-2,1,6,-3,-2,-5,2020-11-12 21:46:06.170
-1,-2,-1,0,0,-2,4,-5,2020-11-12 21:46:06.176
-1,-2,-1,0,0,-2,4,-5,2020-11-12 21:46:06.181
1,2,1,-1,2,-4,2,3,2020-11-12 21:46:06.187
1,2,1,-1,2,-4,2,3,2020-11-12 21:46:06.193
-1,-2,-7,-7,-4,2,0,-4,2020-11-12 21:46:06.199
-1,-1,-2,-4,-1,-4,-5,-6,2020-11-12 21:46:06.205
-1,-1,-2,-4,-1,-4,-5,-6,2020-11-12 21:46:06.212
1,3,1,0,-1,1,0,0,2020-11-12 21:46:06.217
1,3,1,0,-1,1,0,0,2020-11-12 21:46:06.224
1,3,1,0,-1,1,0,0,2020-11-12 21:46:06.230
-3,-3,-3,1,1,-2,0,-6,2020-11-12 21:46:06.237
-4,0,0,-1,-1,-2,0,-5,2020-11-12 21:46:06.243
2,0,-1,-3,-3,1,0,2,2020-11-12 21:46:06.249
2,0,-1,-3,-3,1,0,2,2020-11-12 21:46:06.255
2,0,-1,-3,-3,1,0,2,2020-11-12 21:46:06.261
0,-2,0,-2,-1,-1,0,-2,2020-11-12 21:46:06.266
-1,-1,0,1,-1,1,1,-3,2020-11-12 21:46:06.273
-1,-1,0,1,-1,1,1,-3,2020-11-12 21:46:06.279
-1,-1,0,1,-1,1,1,-3,2020-11-12 21:46:06.286
-2,-4,-1,1,-3,-1,-1,-3,2020-11-12 21:46:06.292
-2,-4,-1,1,-3,-1,-1,-3,2020-11-12 21:46:06.298
0,0,2,3,-1,-1,-4,-1,2020-11-12 21:46:06.305
-2,-2,-7,-6,-1,-3,-2,-2,2020-11-12 21:46:06.311
1,-2,-1,-1,2,2,-3,1,2020-11-12 21:46:06.317
1,-2,-1,-1,2,2,-3,1,2020-11-12 21:46:06.324
0,-1,1,-2,-4,-8,-2,-2,2020-11-12 21:46:06.330
-1,-1,-1,1,0,7,1,-2,2020-11-12 21:46:06.336
-1,-1,-1,1,0,7,1,-2,2020-11-12 21:46:06.342
-1,-1,-1,1,0,7,1,-2,2020-11-12 21:46:06.356
-3,-2,-2,-3,-2,-5,0,4,2020-11-12 21:46:06.361
-3,-2,-2,-3,-2,-5,0,4,2020-11-12 21:46:06.367
-3,0,0,2,3,4,5,-4,2020-11-12 21:46:06.374
-3,0,0,2,3,4,5,-4,2020-11-12 21:46:06.380
3,0,-1,-1,1,1,3,5,2020-11-12 21:46:06.387
1,1,1,1,0,1,-5,-1,2020-11-12 21:46:06.393
1,1,1,1,0,1,-5,-1,2020-11-12 21:46:06.398
1,1,1,1,0,1,-5,-1,2020-11-12 21:46:06.406
-1,-1,1,0,0,1,0,-2,2020-11-12 21:46:06.411
-1,-1,1,0,0,1,0,-2,2020-11-12 21:46:06.417
-2,1,1,-2,1,2,2,-2,2020-11-12 21:46:06.423
-2,1,1,-2,1,2,2,-2,2020-11-12 21:46:06.429
1,0,-1,2,3,1,3,3,2020-11-12 21:46:06.436
1,0,-1,2,3,1,3,3,2020-11-12 21:46:06.442
-1,-2,-2,-1,-2,-4,-12,-2,2020-11-12 21:46:06.447
0,-1,0,0,-3,-6,0,-1,2020-11-12 21:46:06.455
0,-1,0,0,-3,-6,0,-1,2020-11-12 21:46:06.460
0,-1,0,0,-3,-6,0,-1,2020-11-12 21:46:06.466
0,-1,0,0,-3,-6,0,-1,2020-11-12 21:46:06.473
4,1,-2,-4,-1,-1,2,5,2020-11-12 21:46:06.478
0,2,-1,-2,-1,-4,1,4,2020-11-12 21:46:06.484
0,2,-1,-2,-1,-4,1,4,2020-11-12 21:46:06.491
-5,-1,1,3,-1,1,0,-6,2020-11-12 21:46:06.496
-5,-1,1,3,-1,1,0,-6,2020-11-12 21:46:06.503
-1,-2,-1,1,1,0,-11,-3,2020-11-12 21:46:06.508
0,1,0,1,0,-3,0,0,2020-11-12 21:46:06.514
0,1,0,1,0,-3,0,0,2020-11-12 21:46:06.520
0,1,0,1,0,-3,0,0,2020-11-12 21:46:06.526
0,-4,-1,-1,1,5,-2,0,2020-11-12 21:46:06.531
0,-4,-1,-1,1,5,-2,0,2020-11-12 21:46:06.538
0,-4,-1,-1,1,5,-2,0,2020-11-12 21:46:06.544
0,-4,-1,-1,1,5,-2,0,2020-11-12 21:46:06.558
0,-1,0,0,-2,1,-1,-1,2020-11-12 21:46:06.563
-3,-3,-3,-2,-6,-13,-8,-3,2020-11-12 21:46:06.569
-3,-1,-1,-2,-3,-3,-4,-2,2020-11-12 21:46:06.575
-3,-1,-1,-2,-3,-3,-4,-2,2020-11-12 21:46:06.581
-3,-1,-1,-2,-3,-3,-4,-2,2020-11-12 21:46:06.587
2,2,0,0,2,-5,0,2,2020-11-12 21:46:06.593
2,2,0,0,2,-5,0,2,2020-11-12 21:46:06.598
2,2,0,0,2,-5,0,2,2020-11-12 21:46:06.605
1,1,-2,-3,2,3,5,2,2020-11-12 21:46:06.611
0,1,-1,0,-1,5,-1,-2,2020-11-12 21:46:06.616
0,1,-1,0,-1,5,-1,-2,2020-11-12 21:46:06.623
0,-1,-1,1,0,3,7,3,2020-11-12 21:46:06.629
-1,-1,-1,1,1,-3,-1,0,2020-11-12 21:46:06.634
-1,-1,-1,1,1,-3,-1,0,2020-11-12 21:46:06.640
-1,-1,-1,1,1,-3,-1,0,2020-11-12 21:46:06.646
-2,-2,-1,0,-1,-2,16,-2,2020-11-12 21:46:06.651
-2,-2,-1,0,-1,-2,16,-2,2020-11-12 21:46:06.657
-2,-1,0,-1,-2,3,4,11,2020-11-12 21:46:06.663
-2,-1,0,-1,-2,3,4,11,2020-11-12 21:46:06.670
-2,-1,0,-1,-2,3,4,11,2020-11-12 21:46:06.676
2,4,3,4,5,2,8,11,2020-11-12 21:46:06.681
11,-3,-2,-2,-1,7,4,-8,2020-11-12 21:46:06.688
-10,5,4,5,8,29,43,24,2020-11-12 21:46:06.694
-10,5,4,5,8,29,43,24,2020-11-12 21:46:06.699
-10,5,4,5,8,29,43,24,2020-11-12 21:46:06.706
4,-5,1,1,5,11,8,1,2020-11-12 21:46:06.712
4,-5,1,1,5,11,8,1,2020-11-12 21:46:06.718
44,14,4,6,7,4,-5,21,2020-11-12 21:46:06.724
44,14,4,6,7,4,-5,21,2020-11-12 21:46:06.730
7,-6,-5,-6,-5,-13,31,2,2020-11-12 21:46:06.736
7,-6,-5,-6,-5,-13,31,2,2020-11-12 21:46:06.742
7,-6,-5,-6,-5,-13,31,2,2020-11-12 21:46:06.747
-38,0,3,2,3,4,10,-3,2020-11-12 21:46:06.762
15,7,4,3,1,15,4,37,2020-11-12 21:46:06.767
10,-5,-8,-6,-13,-18,-78,-36,2020-11-12 21:46:06.774
10,-5,-8,-6,-13,-18,-78,-36,2020-11-12 21:46:06.780
11,7,6,4,5,-6,-9,7,2020-11-12 21:46:06.786
13,0,1,-1,-5,-62,-75,-7,2020-11-12 21:46:06.792
13,0,1,-1,-5,-62,-75,-7,2020-11-12 21:46:06.798
13,0,1,-1,-5,-62,-75,-7,2020-11-12 21:46:06.805
-31,4,4,3,12,14,81,-29,2020-11-12 21:46:06.811
-5,7,0,11,4,35,72,19,2020-11-12 21:46:06.817
-5,7,0,11,4,35,72,19,2020-11-12 21:46:06.824
36,-17,-14,-9,-11,-8,-24,8,2020-11-12 21:46:06.845
-30,-25,-8,-9,-10,3,-13,-17,2020-11-12 21:46:06.851
-30,-25,-8,-9,-10,3,-13,-17,2020-11-12 21:46:06.857
-30,-25,-8,-9,-10,3,-13,-17,2020-11-12 21:46:06.863
-18,12,0,-7,-6,-12,-90,-11,2020-11-12 21:46:06.869
-18,12,0,-7,-6,-12,-90,-11,2020-11-12 21:46:06.875
-21,0,-5,-11,-6,-15,33,-33,2020-11-12 21:46:06.881
-21,0,-5,-11,-6,-15,33,-33,2020-11-12 21:46:06.887
23,2,-8,-3,-1,13,-4,-9,2020-11-12 21:46:06.893
23,2,-8,-3,-1,13,-4,-9,2020-11-12 21:46:06.898
52,13,7,3,9,11,50,22,2020-11-12 21:46:06.905
33,3,-5,-4,-4,-6,-30,9,2020-11-12 21:46:06.911
33,3,-5,-4,-4,-6,-30,9,2020-11-12 21:46:06.916
33,3,-5,-4,-4,-6,-30,9,2020-11-12 21:46:06.923
2,-19,-4,1,0,12,5,10,2020-11-12 21:46:06.929
-5,-17,-9,-6,0,3,-66,-8,2020-11-12 21:46:06.934
-5,-17,-9,-6,0,3,-66,-8,2020-11-12 21:46:06.941
-5,-17,-9,-6,0,3,-66,-8,2020-11-12 21:46:06.947
30,6,8,2,3,-1,-22,16,2020-11-12 21:46:06.953
30,6,8,2,3,-1,-22,16,2020-11-12 21:46:06.966
35,15,9,3,-5,-16,5,19,2020-11-12 21:46:06.973
35,15,9,3,-5,-16,5,19,2020-11-12 21:46:06.978
35,15,9,3,-5,-16,5,19,2020-11-12 21:46:06.984
-13,-1,7,-3,-6,-17,-25,-12,2020-11-12 21:46:06.991
-33,-31,4,-2,-1,11,54,0,2020-11-12 21:46:06.996
-33,-31,4,-2,-1,11,54,0,2020-11-12 21:46:07.003
-8,11,6,0,5,3,27,1,2020-11-12 21:46:07.009
-32,-2,0,-1,-6,7,21,-36,2020-11-12 21:46:07.016
-32,-2,0,-1,-6,7,21,-36,2020-11-12 21:46:07.022
-13,5,-2,-3,-3,8,80,11,2020-11-12 21:46:07.028
70,0,-2,0,-4,-3,-26,14,2020-11-12 21:46:07.034
70,0,-2,0,-4,-3,-26,14,2020-11-12 21:46:07.040
70,0,-2,0,-4,-3,-26,14,2020-11-12 21:46:07.046
-30,13,8,-4,-6,-1,-21,-10,2020-11-12 21:46:07.051
-45,6,3,1,2,-1,10,-7,2020-11-12 21:46:07.058
-45,6,3,1,2,-1,10,-7,2020-11-12 21:46:07.063
-55,-33,-20,-4,-4,-11,-65,-63,2020-11-12 21:46:07.070
58,32,11,3,2,-11,-5,21,2020-11-12 21:46:07.075
58,32,11,3,2,-11,-5,21,2020-11-12 21:46:07.081
52,-1,-12,0,-4,-23,-35,11,2020-11-12 21:46:07.088
-43,12,16,0,0,3,13,-8,2020-11-12 21:46:07.093
-43,12,16,0,0,3,13,-8,2020-11-12 21:46:07.099
-43,12,16,0,0,3,13,-8,2020-11-12 21:46:07.106
32,13,0,2,5,11,47,21,2020-11-12 21:46:07.112
-27,-10,10,-3,0,4,49,4,2020-11-12 21:46:07.117
-27,-10,10,-3,0,4,49,4,2020-11-12 21:46:07.124
-49,6,-16,-9,-6,-3,1,-24,2020-11-12 21:46:07.130
38,5,17,-3,7,-5,-7,23,2020-11-12 21:46:07.136
38,5,17,-3,7,-5,-7,23,2020-11-12 21:46:07.142
38,5,17,-3,7,-5,-7,23,2020-11-12 21:46:07.147
38,5,17,-3,7,-5,-7,23,2020-11-12 21:46:07.154
-9,-37,-38,-5,4,4,-29,-15,2020-11-12 21:46:07.166
-15,-15,-18,-4,2,0,1,9,2020-11-12 21:46:07.173
-15,-15,-18,-4,2,0,1,9,2020-11-12 21:46:07.179
-15,-15,-18,-4,2,0,1,9,2020-11-12 21:46:07.184
-2,25,18,7,7,18,5,0,2020-11-12 21:46:07.192
-10,-59,-39,1,-8,-11,0,-17,2020-11-12 21:46:07.197
-10,-59,-39,1,-8,-11,0,-17,2020-11-12 21:46:07.204
-10,-59,-39,1,-8,-11,0,-17,2020-11-12 21:46:07.210
10,55,19,-19,-2,-11,-3,-1,2020-11-12 21:46:07.216
10,55,19,-19,-2,-11,-3,-1,2020-11-12 21:46:07.223
12,-34,-12,4,-10,-4,0,11,2020-11-12 21:46:07.228
-12,22,5,9,-9,-23,-14,-15,2020-11-12 21:46:07.234
-12,22,5,9,-9,-23,-14,-15,2020-11-12 21:46:07.241
-12,22,5,9,-9,-23,-14,-15,2020-11-12 21:46:07.247
4,37,13,-7,0,1,-9,-5,2020-11-12 21:46:07.254
-40,-29,-8,3,4,9,-4,-1,2020-11-12 21:46:07.260
-40,-29,-8,3,4,9,-4,-1,2020-11-12 21:46:07.265
3,-45,-25,-4,-7,-11,-20,-11,2020-11-12 21:46:07.272
-8,7,7,6,-4,18,2,-1,2020-11-12 21:46:07.277
-8,7,7,6,-4,18,2,-1,2020-11-12 21:46:07.283
-8,7,7,6,-4,18,2,-1,2020-11-12 21:46:07.291
-15,-22,0,4,20,7,0,-12,2020-11-12 21:46:07.297
-15,-22,0,4,20,7,0,-12,2020-11-12 21:46:07.303
-6,-43,-10,-3,9,5,0,-7,2020-11-12 21:46:07.312
9,52,26,2,1,3,8,12,2020-11-12 21:46:07.318
9,52,26,2,1,3,8,12,2020-11-12 21:46:07.326
-7,19,4,11,0,5,-16,7,2020-11-12 21:46:07.331
4,-23,-3,7,-6,-6,-5,-6,2020-11-12 21:46:07.338
4,-23,-3,7,-6,-6,-5,-6,2020-11-12 21:46:07.344
3,3,4,-1,-3,5,9,1,2020-11-12 21:46:07.349
3,3,4,-1,-3,5,9,1,2020-11-12 21:46:07.356
-24,-1,-37,2,-8,-7,-36,-32,2020-11-12 21:46:07.370
8,72,59,15,4,-22,5,14,2020-11-12 21:46:07.376
8,72,59,15,4,-22,5,14,2020-11-12 21:46:07.382
8,72,59,15,4,-22,5,14,2020-11-12 21:46:07.389
8,-65,-16,-13,-3,-4,5,6,2020-11-12 21:46:07.395
8,-65,-16,-13,-3,-4,5,6,2020-11-12 21:46:07.401
42,41,33,4,6,5,14,12,2020-11-12 21:46:07.407
42,41,33,4,6,5,14,12,2020-11-12 21:46:07.413
19,30,-30,-8,-3,1,-4,2,2020-11-12 21:46:07.419
19,30,-30,-8,-3,1,-4,2,2020-11-12 21:46:07.426
24,-36,-13,7,7,9,8,14,2020-11-12 21:46:07.433
-36,-49,-31,-22,-3,0,10,-3,2020-11-12 21:46:07.440
-36,-49,-31,-22,-3,0,10,-3,2020-11-12 21:46:07.446
-14,59,38,0,0,-5,-3,-4,2020-11-12 21:46:07.452
8,-1,3,0,-6,-12,-3,-2,2020-11-12 21:46:07.458
8,-1,3,0,-6,-12,-3,-2,2020-11-12 21:46:07.464
-6,-29,11,-5,-7,-6,-1,-3,2020-11-12 21:46:07.471
2,-25,-5,6,-1,-2,-6,-1,2020-11-12 21:46:07.476
2,-25,-5,6,-1,-2,-6,-1,2020-11-12 21:46:07.482
-7,-25,-5,2,4,11,4,0,2020-11-12 21:46:07.489
7,6,10,1,-1,6,1,3,2020-11-12 21:46:07.495
7,6,10,1,-1,6,1,3,2020-11-12 21:46:07.501
7,6,10,1,-1,6,1,3,2020-11-12 21:46:07.508
17,89,63,7,3,6,3,2,2020-11-12 21:46:07.515
17,89,63,7,3,6,3,2,2020-11-12 21:46:07.522
-7,-25,2,4,1,-5,-1,-3,2020-11-12 21:46:07.528
-7,-25,2,4,1,-5,-1,-3,2020-11-12 21:46:07.533
-7,-25,2,4,1,-5,-1,-3,2020-11-12 21:46:07.540
-27,-55,-23,-4,-6,-9,-2,1,2020-11-12 21:46:07.545
2,0,-8,3,-2,-3,0,9,2020-11-12 21:46:07.552
2,14,24,5,3,1,-3,-4,2020-11-12 21:46:07.558
2,14,24,5,3,1,-3,-4,2020-11-12 21:46:07.573
-9,-40,-8,-4,-2,-2,4,2,2020-11-12 21:46:07.578
-9,-36,-7,-3,-6,-11,-2,-3,2020-11-12 21:46:07.584
-9,-36,-7,-3,-6,-11,-2,-3,2020-11-12 21:46:07.591
28,61,12,0,0,0,0,-1,2020-11-12 21:46:07.597
28,61,12,0,0,0,0,-1,2020-11-12 21:46:07.603
-12,-53,-23,-2,-2,-7,-4,-4,2020-11-12 21:46:07.609
-8,-4,-5,-2,-4,0,-4,-7,2020-11-12 21:46:07.615
-8,-4,-5,-2,-4,0,-4,-7,2020-11-12 21:46:07.622
-8,-4,-5,-2,-4,0,-4,-7,2020-11-12 21:46:07.627
-8,-4,-5,-2,-4,0,-4,-7,2020-11-12 21:46:07.632
8,18,11,4,8,4,1,8,2020-11-12 21:46:07.638
-10,-15,-12,-2,-4,-5,2,1,2020-11-12 21:46:07.645
-23,-5,-4,0,3,3,-5,-15,2020-11-12 21:46:07.650
15,-1,0,-3,0,4,3,11,2020-11-12 21:46:07.656
15,-1,0,-3,0,4,3,11,2020-11-12 21:46:07.663
5,32,15,1,-4,-2,0,3,2020-11-12 21:46:07.668
5,32,15,1,-4,-2,0,3,2020-11-12 21:46:07.675
-25,-56,-5,-3,-2,2,-3,-8,2020-11-12 21:46:07.680
-25,-56,-5,-3,-2,2,-3,-8,2020-11-12 21:46:07.685
5,10,5,0,-1,3,1,0,2020-11-12 21:46:07.692
-5,-36,-29,0,6,4,-2,-1,2020-11-12 21:46:07.697
-5,-36,-29,0,6,4,-2,-1,2020-11-12 21:46:07.704
-5,-36,-29,0,6,4,-2,-1,2020-11-12 21:46:07.709
-5,-36,-29,0,6,4,-2,-1,2020-11-12 21:46:07.715
-5,-36,-29,0,6,4,-2,-1,2020-11-12 21:46:07.721
22,50,34,6,-1,-8,0,6,2020-11-12 21:46:07.727
-7,6,-9,0,-7,-10,-5,-11,2020-11-12 21:46:07.733
-28,-67,-48,-10,-3,-2,-4,-10,2020-11-12 21:46:07.740
-28,-67,-48,-10,-3,-2,-4,-10,2020-11-12 21:46:07.745
9,24,15,1,-5,-13,3,7,2020-11-12 21:46:07.751
4,11,-1,0,2,10,2,0,2020-11-12 21:46:07.757
4,11,-1,0,2,10,2,0,2020-11-12 21:46:07.763
4,11,-1,0,2,10,2,0,2020-11-12 21:46:07.778
9,13,-2,0,-1,3,3,4,2020-11-12 21:46:07.784
8,34,14,2,-2,-6,-2,-3,2020-11-12 21:46:07.791
5,24,-18,-1,7,9,2,5,2020-11-12 21:46:07.796
5,24,-18,-1,7,9,2,5,2020-11-12 21:46:07.802
5,24,-18,-1,7,9,2,5,2020-11-12 21:46:07.808
-11,-15,-17,-3,-6,-10,-3,-1,2020-11-12 21:46:07.830
-8,-9,-11,0,-1,-8,-3,-2,2020-11-12 21:46:07.834
-8,-9,-11,0,-1,-8,-3,-2,2020-11-12 21:46:07.841
-8,-9,-11,0,-1,-8,-3,-2,2020-11-12 21:46:07.846
-25,-30,-12,1,-2,1,-5,-15,2020-11-12 21:46:07.852
21,0,14,0,-6,-8,5,15,2020-11-12 21:46:07.858
21,0,14,0,-6,-8,5,15,2020-11-12 21:46:07.864
21,0,14,0,-6,-8,5,15,2020-11-12 21:46:07.870
10,29,7,-1,-1,4,4,4,2020-11-12 21:46:07.876
10,29,7,-1,-1,4,4,4,2020-11-12 21:46:07.882
-1,0,2,0,1,-4,4,8,2020-11-12 21:46:07.888
10,18,6,6,-2,-11,1,5,2020-11-12 21:46:07.894
10,18,6,6,-2,-11,1,5,2020-11-12 21:46:07.900
10,18,6,6,-2,-11,1,5,2020-11-12 21:46:07.906
10,18,6,6,-2,-11,1,5,2020-11-12 21:46:07.912
1,34,13,1,1,1,-5,-7,2020-11-12 21:46:07.917
3,16,9,2,-4,-1,0,-1,2020-11-12 21:46:07.924
3,16,9,2,-4,-1,0,-1,2020-11-12 21:46:07.930
-3,-2,-2,-1,0,4,-3,-7,2020-11-12 21:46:07.935
-3,-2,-2,-1,0,4,-3,-7,2020-11-12 21:46:07.942
3,-6,-9,-4,-7,-3,-3,-3,2020-11-12 21:46:07.948
3,-6,-9,-4,-7,-3,-3,-3,2020-11-12 21:46:07.954
-2,-10,4,-1,1,4,3,3,2020-11-12 21:46:07.960
-2,-10,4,-1,1,4,3,3,2020-11-12 21:46:07.965
-2,-10,4,-1,1,4,3,3,2020-11-12 21:46:07.980
-5,-4,-2,-2,3,4,-1,-3,2020-11-12 21:46:07.985
7,10,4,0,0,-1,1,4,2020-11-12 21:46:07.992
-10,-9,-5,1,3,-3,-5,-4,2020-11-12 21:46:07.997
-10,-9,-5,1,3,-3,-5,-4,2020-11-12 21:46:08.004
6,13,9,2,0,-3,1,5,2020-11-12 21:46:08.010
-3,-11,-2,-1,3,5,4,-1,2020-11-12 21:46:08.016
-3,-11,-2,-1,3,5,4,-1,2020-11-12 21:46:08.023
-8,-27,-18,-3,1,0,0,-1,2020-11-12 21:46:08.028
-8,-27,-18,-3,1,0,0,-1,2020-11-12 21:46:08.034
0,11,2,-1,-3,3,-4,-5,2020-11-12 21:46:08.041
0,11,2,-1,-3,3,-4,-5,2020-11-12 21:46:08.046
0,11,2,-1,-3,3,-4,-5,2020-11-12 21:46:08.052
-1,-3,2,-2,-2,0,-3,-1,2020-11-12 21:46:08.059
2,4,4,1,-4,-9,-2,1,2020-11-12 21:46:08.065
2,4,4,1,-4,-9,-2,1,2020-11-12 21:46:08.071
2,4,4,1,-4,-9,-2,1,2020-11-12 21:46:08.077
-1,14,7,1,-3,5,-1,-2,2020-11-12 21:46:08.083
-1,0,-3,-4,-1,-3,-2,-4,2020-11-12 21:46:08.090
-2,-6,-6,0,6,14,-1,0,2020-11-12 21:46:08.095
-2,-6,-6,0,6,14,-1,0,2020-11-12 21:46:08.101
-2,-6,-6,0,6,14,-1,0,2020-11-12 21:46:08.108
2,2,3,0,4,3,1,-1,2020-11-12 21:46:08.114
-6,-11,-5,-4,0,-2,-1,-4,2020-11-12 21:46:08.120
-6,-11,-5,-4,0,-2,-1,-4,2020-11-12 21:46:08.126
-6,-11,-5,-4,0,-2,-1,-4,2020-11-12 21:46:08.132
3,7,2,1,-4,0,0,-1,2020-11-12 21:46:08.137
3,7,2,1,-4,0,0,-1,2020-11-12 21:46:08.144
7,33,20,0,-3,2,1,-1,2020-11-12 21:46:08.150
3,6,-1,0,-3,-10,-1,1,2020-11-12 21:46:08.156
3,6,-1,0,-3,-10,-1,1,2020-11-12 21:46:08.161
3,6,-1,0,-3,-10,-1,1,2020-11-12 21:46:08.167
-3,-13,-9,-2,0,-4,0,2,2020-11-12 21:46:08.181
-6,-17,-6,-2,5,4,0,-5,2020-11-12 21:46:08.186
-6,-17,-6,-2,5,4,0,-5,2020-11-12 21:46:08.193
-6,-17,-6,-2,5,4,0,-5,2020-11-12 21:46:08.198
-1,-12,-5,-2,-3,-2,1,1,2020-11-12 21:46:08.205
21,84,65,5,9,20,8,5,2020-11-12 21:46:08.210
28,73,31,1,-5,-4,4,7,2020-11-12 21:46:08.217
28,73,31,1,-5,-4,4,7,2020-11-12 21:46:08.224
28,73,31,1,-5,-4,4,7,2020-11-12 21:46:08.230
18,29,-16,25,0,-10,0,5,2020-11-12 21:46:08.236
-30,-66,-51,5,0,-2,-4,-3,2020-11-12 21:46:08.243
-30,-66,-51,5,0,-2,-4,-3,2020-11-12 21:46:08.248
-33,-20,2,19,-46,-22,-9,-24,2020-11-12 21:46:08.255
-17,91,67,-31,-26,20,1,-59,2020-11-12 21:46:08.261
-17,91,67,-31,-26,20,1,-59,2020-11-12 21:46:08.266
-17,91,67,-31,-26,20,1,-59,2020-11-12 21:46:08.273
-57,-91,-44,-8,0,-2,-7,-23,2020-11-12 21:46:08.279
-57,-91,-44,-8,0,-2,-7,-23,2020-11-12 21:46:08.285
-37,-38,-16,-13,0,-8,-14,-34,2020-11-12 21:46:08.293
29,3,12,5,-4,-29,-11,12,2020-11-12 21:46:08.298
29,3,12,5,-4,-29,-11,12,2020-11-12 21:46:08.304
29,3,12,5,-4,-29,-11,12,2020-11-12 21:46:08.312
-4,-10,2,-6,22,7,8,7,2020-11-12 21:46:08.319
-4,-10,2,-6,22,7,8,7,2020-11-12 21:46:08.326
-5,-10,-39,-13,4,-1,-6,-13,2020-11-12 21:46:08.332
-5,-10,-39,-13,4,-1,-6,-13,2020-11-12 21:46:08.338
7,-4,1,51,12,7,6,20,2020-11-12 21:46:08.344
7,-4,1,51,12,7,6,20,2020-11-12 21:46:08.350
-9,-38,-3,11,8,10,4,-8,2020-11-12 21:46:08.356
14,-44,-27,12,-17,-17,-8,14,2020-11-12 21:46:08.362
14,-44,-27,12,-17,-17,-8,14,2020-11-12 21:46:08.368
14,-44,-27,12,-17,-17,-8,14,2020-11-12 21:46:08.382
14,-44,-27,12,-17,-17,-8,14,2020-11-12 21:46:08.390
-6,14,9,2,-6,19,-8,-6,2020-11-12 21:46:08.395
-6,14,9,2,-6,19,-8,-6,2020-11-12 21:46:08.401
-7,-89,-80,-20,3,0,1,-2,2020-11-12 21:46:08.407
-7,-89,-80,-20,3,0,1,-2,2020-11-12 21:46:08.413
-3,-14,-9,16,18,18,16,7,2020-11-12 21:46:08.418
-2,36,19,5,8,5,2,2,2020-11-12 21:46:08.425
-2,36,19,5,8,5,2,2,2020-11-12 21:46:08.431
1,19,-4,-21,-3,-5,10,5,2020-11-12 21:46:08.437
1,19,-4,-21,-3,-5,10,5,2020-11-12 21:46:08.444
5,0,-4,6,-2,3,2,3,2020-11-12 21:46:08.450
5,0,-4,6,-2,3,2,3,2020-11-12 21:46:08.456
6,-10,-10,2,3,-2,-2,4,2020-11-12 21:46:08.462
6,-10,-10,2,3,-2,-2,4,2020-11-12 21:46:08.467
-6,-24,-11,0,-3,6,2,-1,2020-11-12 21:46:08.474
6,13,7,13,4,-13,-1,3,2020-11-12 21:46:08.480
6,13,7,13,4,-13,-1,3,2020-11-12 21:46:08.485
6,13,7,13,4,-13,-1,3,2020-11-12 21:46:08.492
1,20,17,-10,-9,-42,-1,-2,2020-11-12 21:46:08.497
1,20,17,-10,-9,-42,-1,-2,2020-11-12 21:46:08.503
-1,2,-1,-2,9,10,7,3,2020-11-12 21:46:08.510
-1,2,-1,-2,9,10,7,3,2020-11-12 21:46:08.515
2,-5,6,1,6,-34,-1,-1,2020-11-12 21:46:08.522
2,-5,6,1,6,-34,-1,-1,2020-11-12 21:46:08.527
-8,3,-3,12,6,19,7,-1,2020-11-12 21:46:08.533
-13,12,12,-2,0,-27,-9,-7,2020-11-12 21:46:08.540
-13,12,12,-2,0,-27,-9,-7,2020-11-12 21:46:08.544
-13,12,12,-2,0,-27,-9,-7,2020-11-12 21:46:08.550
57,6,5,-5,-3,4,-14,-19,2020-11-12 21:46:08.557
57,6,5,-5,-3,4,-14,-19,2020-11-12 21:46:08.562
47,8,0,3,-4,91,-24,58,2020-11-12 21:46:08.568
47,8,0,3,-4,91,-24,58,2020-11-12 21:46:08.582
-21,-14,-10,-9,-15,-40,88,-3,2020-11-12 21:46:08.587
100,23,6,2,-5,-9,14,43,2020-11-12 21:46:08.594
-35,-6,7,2,5,13,2,8,2020-11-12 21:46:08.600
-35,-6,7,2,5,13,2,8,2020-11-12 21:46:08.606
-35,-6,7,2,5,13,2,8,2020-11-12 21:46:08.612
-35,-6,7,2,5,13,2,8,2020-11-12 21:46:08.618
-41,-17,-11,-13,-17,-30,11,-56,2020-11-12 21:46:08.625
20,-14,-7,-1,0,-63,62,20,2020-11-12 21:46:08.631
69,31,15,8,11,22,11,65,2020-11-12 21:46:08.636
69,31,15,8,11,22,11,65,2020-11-12 21:46:08.643
69,31,15,8,11,22,11,65,2020-11-12 21:46:08.648
-65,-11,-2,-2,-7,23,-60,-80,2020-11-12 21:46:08.655
-14,-9,-6,-11,-13,-51,-31,10,2020-11-12 21:46:08.661
-14,-9,-6,-11,-13,-51,-31,10,2020-11-12 21:46:08.666
-14,-9,-6,-11,-13,-51,-31,10,2020-11-12 21:46:08.674
-4,7,-2,2,2,25,-26,-22,2020-11-12 21:46:08.679
-4,7,-2,2,2,25,-26,-22,2020-11-12 21:46:08.685
-78,-28,-7,-6,-4,9,-23,-30,2020-11-12 21:46:08.692
8,10,4,0,1,-7,84,-25,2020-11-12 21:46:08.697
8,10,4,0,1,-7,84,-25,2020-11-12 21:46:08.703
8,10,4,0,1,-7,84,-25,2020-11-12 21:46:08.710
2,10,7,7,9,-32,-32,-51,2020-11-12 21:46:08.715
18,-8,-2,3,10,49,-34,12,2020-11-12 21:46:08.722
18,-8,-2,3,10,49,-34,12,2020-11-12 21:46:08.728
-6,7,2,1,-1,-1,41,16,2020-11-12 21:46:08.734
-6,1,1,4,5,-7,6,-6,2020-11-12 21:46:08.741
28,-1,-2,-1,-1,-6,-77,-14,2020-11-12 21:46:08.747
28,-1,-2,-1,-1,-6,-77,-14,2020-11-12 21:46:08.753
2,5,2,-1,4,6,-24,6,2020-11-12 21:46:08.759
2,5,2,-1,4,6,-24,6,2020-11-12 21:46:08.765
52,6,3,1,-3,17,-61,18,2020-11-12 21:46:08.771
52,6,3,1,-3,17,-61,18,2020-11-12 21:46:08.785
-22,5,3,3,5,2,-20,20,2020-11-12 21:46:08.792
18,4,-3,0,-5,-4,-77,-17,2020-11-12 21:46:08.797
18,4,-3,0,-5,-4,-77,-17,2020-11-12 21:46:08.803
18,-7,2,-2,-2,-33,30,6,2020-11-12 21:46:08.825
26,12,8,8,13,15,-20,14,2020-11-12 21:46:08.831
26,12,8,8,13,15,-20,14,2020-11-12 21:46:08.837
-13,-11,-11,-12,-11,-63,28,1,2020-11-12 21:46:08.844
-13,-11,-11,-12,-11,-63,28,1,2020-11-12 21:46:08.850
-5,14,2,4,4,1,39,6,2020-11-12 21:46:08.856
5,10,8,6,10,11,32,14,2020-11-12 21:46:08.863
15,-15,-15,-13,-19,-26,-68,-40,2020-11-12 21:46:08.868
15,-15,-15,-13,-19,-26,-68,-40,2020-11-12 21:46:08.875
67,-11,-5,1,-1,7,-4,6,2020-11-12 21:46:08.881
67,-11,-5,1,-1,7,-4,6,2020-11-12 21:46:08.886
2,21,10,7,4,22,37,11,2020-11-12 21:46:08.893
-47,-17,4,1,2,18,-15,-9,2020-11-12 21:46:08.899
-47,-17,4,1,2,18,-15,-9,2020-11-12 21:46:08.904
-47,-17,4,1,2,18,-15,-9,2020-11-12 21:46:08.910
-1,-1,1,-3,1,-13,10,11,2020-11-12 21:46:08.915
-32,-15,1,-1,1,18,13,-14,2020-11-12 21:46:08.922
-34,1,-1,-1,4,4,-10,-10,2020-11-12 21:46:08.927
-34,1,-1,-1,4,4,-10,-10,2020-11-12 21:46:08.933
49,28,-2,-4,-1,3,-36,18,2020-11-12 21:46:08.940
49,28,-2,-4,-1,3,-36,18,2020-11-12 21:46:08.945
-2,-12,-9,1,-6,-2,-35,-26,2020-11-12 21:46:08.951
11,-4,2,1,1,-8,13,16,2020-11-12 21:46:08.957
11,-4,2,1,1,-8,13,16,2020-11-12 21:46:08.963
11,-4,2,1,1,-8,13,16,2020-11-12 21:46:08.969
15,2,14,-4,-9,-4,17,6,2020-11-12 21:46:08.976
-32,-2,18,-3,5,-9,11,9,2020-11-12 21:46:08.991
42,19,-7,3,9,-5,15,8,2020-11-12 21:46:08.996
42,19,-7,3,9,-5,15,8,2020-11-12 21:46:09.002
42,19,-7,3,9,-5,15,8,2020-11-12 21:46:09.008
-72,-24,-12,-4,-7,-26,48,-1,2020-11-12 21:46:09.015
-18,-5,-4,-3,-9,-18,-61,-19,2020-11-12 21:46:09.023
-18,-5,-4,-3,-9,-18,-61,-19,2020-11-12 21:46:09.029
14,-14,-28,-6,-6,-17,34,6,2020-11-12 21:46:09.035
47,14,-7,1,-1,21,20,6,2020-11-12 21:46:09.042
47,14,-7,1,-1,21,20,6,2020-11-12 21:46:09.047
47,14,-7,1,-1,21,20,6,2020-11-12 21:46:09.053
-39,1,46,-3,-6,26,-9,-11,2020-11-12 21:46:09.060
-39,1,46,-3,-6,26,-9,-11,2020-11-12 21:46:09.065
-3,1,10,2,14,24,18,4,2020-11-12 21:46:09.072
49,14,-8,-7,-15,-10,-19,10,2020-11-12 21:46:09.077
-39,-19,-7,-3,-2,8,5,-19,2020-11-12 21:46:09.083
-39,-19,-7,-3,-2,8,5,-19,2020-11-12 21:46:09.090
16,3,0,-2,0,-7,-4,7,2020-11-12 21:46:09.095
-62,4,-21,-3,-10,3,9,-35,2020-11-12 21:46:09.101
-62,4,-21,-3,-10,3,9,-35,2020-11-12 21:46:09.107
-62,4,-21,-3,-10,3,9,-35,2020-11-12 21:46:09.113
-24,14,8,-6,-8,-10,-2,-14,2020-11-12 21:46:09.118
-24,14,8,-6,-8,-10,-2,-14,2020-11-12 21:46:09.125
-24,17,17,29,5,-8,0,-16,2020-11-12 21:46:09.131
-24,17,17,29,5,-8,0,-16,2020-11-12 21:46:09.136
34,1,-2,12,6,-1,-2,10,2020-11-12 21:46:09.143
34,1,-2,12,6,-1,-2,10,2020-11-12 21:46:09.152
-18,23,17,-2,0,-2,6,-4,2020-11-12 21:46:09.159
-9,-26,-30,-2,-8,-17,-32,-8,2020-11-12 21:46:09.165
-9,-26,-30,-2,-8,-17,-32,-8,2020-11-12 21:46:09.171
-8,18,7,-6,2,-7,4,-1,2020-11-12 21:46:09.177
9,0,-1,-5,2,20,27,12,2020-11-12 21:46:09.192
8,2,5,3,-5,-7,5,6,2020-11-12 21:46:09.197
8,2,5,3,-5,-7,5,6,2020-11-12 21:46:09.203
8,2,5,3,-5,-7,5,6,2020-11-12 21:46:09.210
-20,-10,-10,-5,-6,-8,-6,-10,2020-11-12 21:46:09.216
25,13,8,2,4,14,31,18,2020-11-12 21:46:09.222
25,13,8,2,4,14,31,18,2020-11-12 21:46:09.228
25,13,8,2,4,14,31,18,2020-11-12 21:46:09.234
-18,-13,-10,-8,-11,-12,-28,-16,2020-11-12 21:46:09.241
-18,-13,-10,-8,-11,-12,-28,-16,2020-11-12 21:46:09.246
-59,21,33,6,-2,-3,6,-11,2020-11-12 21:46:09.252
-3,-6,18,-7,-8,-10,-3,-6,2020-11-12 21:46:09.259
-3,-6,18,-7,-8,-10,-3,-6,2020-11-12 21:46:09.264
-3,-6,18,-7,-8,-10,-3,-6,2020-11-12 21:46:09.270
14,-59,-61,-24,-15,5,2,4,2020-11-12 21:46:09.277
1,3,-23,-3,3,7,-5,-6,2020-11-12 21:46:09.282
1,3,-23,-3,3,7,-5,-6,2020-11-12 21:46:09.288
1,3,-23,-3,3,7,-5,-6,2020-11-12 21:46:09.295
21,-23,0,-27,-7,14,12,31,2020-11-12 21:46:09.301
21,-23,0,-27,-7,14,12,31,2020-11-12 21:46:09.308
21,-23,0,-27,-7,14,12,31,2020-11-12 21:46:09.314
-30,-3,-2,12,8,2,2,-1,2020-11-12 21:46:09.321
-30,-3,-2,12,8,2,2,-1,2020-11-12 21:46:09.328
13,44,6,8,-4,-9,-1,0,2020-11-12 21:46:09.334
2,51,37,10,0,12,-7,-10,2020-11-12 21:46:09.340
2,51,37,10,0,12,-7,-10,2020-11-12 21:46:09.346
2,51,37,10,0,12,-7,-10,2020-11-12 21:46:09.352
-1,-15,3,1,-2,-5,5,4,2020-11-12 21:46:09.358
14,28,1,11,9,5,-7,-3,2020-11-12 21:46:09.364
-6,-53,-29,-3,-1,0,2,3,2020-11-12 21:46:09.370
-6,-53,-29,-3,-1,0,2,3,2020-11-12 21:46:09.377
-13,-38,-28,-3,5,6,6,-2,2020-11-12 21:46:09.383
-13,-38,-28,-3,5,6,6,-2,2020-11-12 21:46:09.397
-2,14,-9,0,-8,-13,-7,-14,2020-11-12 21:46:09.402
-2,14,-9,0,-8,-13,-7,-14,2020-11-12 21:46:09.408
-2,14,-9,0,-8,-13,-7,-14,2020-11-12 21:46:09.414
12,45,29,2,2,1,4,9,2020-11-12 21:46:09.420
-10,-66,-7,-4,4,7,7,-1,2020-11-12 21:46:09.427
-5,-2,-11,-4,-3,-7,-4,-9,2020-11-12 21:46:09.433
-1,-26,-12,7,-1,2,4,4,2020-11-12 21:46:09.440
-1,-26,-12,7,-1,2,4,4,2020-11-12 21:46:09.446
-1,-26,-12,7,-1,2,4,4,2020-11-12 21:46:09.452
-1,-26,-12,7,-1,2,4,4,2020-11-12 21:46:09.458
2,8,2,1,2,-2,-1,-5,2020-11-12 21:46:09.464
2,8,2,1,2,-2,-1,-5,2020-11-12 21:46:09.470
2,8,2,1,2,-2,-1,-5,2020-11-12 21:46:09.477
3,-7,-5,-4,-3,-2,5,12,2020-11-12 21:46:09.482
3,-7,-5,-4,-3,-2,5,12,2020-11-12 21:46:09.488
-28,-20,-14,-4,2,-1,-11,-22,2020-11-12 21:46:09.494
48,49,16,1,1,1,2,21,2020-11-12 21:46:09.500
48,49,16,1,1,1,2,21,2020-11-12 21:46:09.506
48,49,16,1,1,1,2,21,2020-11-12 21:46:09.512
-14,34,18,6,6,0,-3,-1,2020-11-12 21:46:09.517
6,6,-1,1,-1,4,1,-2,2020-11-12 21:46:09.524
6,6,-1,1,-1,4,1,-2,2020-11-12 21:46:09.530
4,-8,-9,-1,3,-5,1,0,2020-11-12 21:46:09.535
-11,-1,10,0,7,11,2,3,2020-11-12 21:46:09.542
-11,-1,10,0,7,11,2,3,2020-11-12 21:46:09.548
-12,-30,-22,2,2,2,-3,-8,2020-11-12 21:46:09.553
-12,-30,-22,2,2,2,-3,-8,2020-11-12 21:46:09.561
22,58,37,6,0,3,1,5,2020-11-12 21:46:09.566
22,58,37,6,0,3,1,5,2020-11-12 21:46:09.573
1,6,5,0,0,1,3,6,2020-11-12 21:46:09.580
-10,-13,-15,-2,2,1,1,-3,2020-11-12 21:46:09.585
-10,-13,-15,-2,2,1,1,-3,2020-11-12 21:46:09.599
-2,29,14,5,0,-2,-3,-5,2020-11-12 21:46:09.606
-7,-7,-9,-3,-3,-4,-1,-5,2020-11-12 21:46:09.612
-7,-7,-9,-3,-3,-4,-1,-5,2020-11-12 21:46:09.618
-3,-24,-18,-4,-4,-7,-3,-4,2020-11-12 21:46:09.624
-3,-24,-18,-4,-4,-7,-3,-4,2020-11-12 21:46:09.630
4,47,29,5,1,0,1,0,2020-11-12 21:46:09.636
-5,-19,-7,-4,-2,0,-4,-3,2020-11-12 21:46:09.642
-5,-19,-7,-4,-2,0,-4,-3,2020-11-12 21:46:09.647
-5,-19,-7,-4,-2,0,-4,-3,2020-11-12 21:46:09.653
-14,-16,-6,-12,-5,-10,-6,-9,2020-11-12 21:46:09.659
-14,-16,-6,-12,-5,-10,-6,-9,2020-11-12 21:46:09.665
-14,-16,-6,-12,-5,-10,-6,-9,2020-11-12 21:46:09.671
-14,-16,-6,-12,-5,-10,-6,-9,2020-11-12 21:46:09.678
-14,-63,-54,-4,-1,2,-2,-4,2020-11-12 21:46:09.684
-14,-63,-54,-4,-1,2,-2,-4,2020-11-12 21:46:09.691
-1,11,8,2,1,-7,2,4,2020-11-12 21:46:09.696
7,-9,-13,-1,-2,0,1,3,2020-11-12 21:46:09.702
7,-9,-13,-1,-2,0,1,3,2020-11-12 21:46:09.709
7,-9,-13,-1,-2,0,1,3,2020-11-12 21:46:09.714
14,31,18,5,2,0,3,6,2020-11-12 21:46:09.720
14,31,18,5,2,0,3,6,2020-11-12 21:46:09.726
14,31,18,5,2,0,3,6,2020-11-12 21:46:09.732
14,31,18,5,2,0,3,6,2020-11-12 21:46:09.737
14,31,18,5,2,0,3,6,2020-11-12 21:46:09.744
0,3,4,-5,-3,-2,-1,0,2020-11-12 21:46:09.750
-6,-42,-14,-12,1,1,-1,-1,2020-11-12 21:46:09.756
-6,-7,5,5,-2,-10,-4,-8,2020-11-12 21:46:09.762
-6,-7,5,5,-2,-10,-4,-8,2020-11-12 21:46:09.768
-6,-7,5,5,-2,-10,-4,-8,2020-11-12 21:46:09.774
-4,-5,-5,-2,1,3,-2,-4,2020-11-12 21:46:09.780
-4,-5,-5,-2,1,3,-2,-4,2020-11-12 21:46:09.785
-4,-5,-5,-2,1,3,-2,-4,2020-11-12 21:46:09.800
-6,2,8,-4,-2,1,2,1,2020-11-12 21:46:09.805
-6,2,8,-4,-2,1,2,1,2020-11-12 21:46:09.812
35,80,49,6,-1,4,4,11,2020-11-12 21:46:09.833
11,53,19,-9,5,3,3,6,2020-11-12 21:46:09.839
11,53,19,-9,5,3,3,6,2020-11-12 21:46:09.845
11,53,19,-9,5,3,3,6,2020-11-12 21:46:09.850
11,53,19,-9,5,3,3,6,2020-11-12 21:46:09.857
-7,-26,-15,4,-2,-1,0,0,2020-11-12 21:46:09.863
-7,-26,-15,4,-2,-1,0,0,2020-11-12 21:46:09.868
-1,-3,-7,-1,5,4,0,-1,2020-11-12 21:46:09.875
-1,-4,-2,2,-1,1,-3,-2,2020-11-12 21:46:09.881
-1,-4,-2,2,-1,1,-3,-2,2020-11-12 21:46:09.886
-1,-4,-2,2,-1,1,-3,-2,2020-11-12 21:46:09.893
3,-15,-4,1,2,1,7,6,2020-11-12 21:46:09.898
-3,-1,1,3,0,6,3,-2,2020-11-12 21:46:09.904
-3,-1,1,3,0,6,3,-2,2020-11-12 21:46:09.910
-3,-1,1,3,0,6,3,-2,2020-11-12 21:46:09.916
0,2,-3,-1,-5,-4,1,-2,2020-11-12 21:46:09.922
0,2,-3,-1,-5,-4,1,-2,2020-11-12 21:46:09.928
0,2,-3,-1,-5,-4,1,-2,2020-11-12 21:46:09.934
0,2,-3,-1,-5,-4,1,-2,2020-11-12 21:46:09.940
0,-8,-3,0,-5,-11,-2,1,2020-11-12 21:46:09.947
0,-8,-3,0,-5,-11,-2,1,2020-11-12 21:46:09.953
-2,-2,0,1,-2,-8,-4,-3,2020-11-12 21:46:09.959
-2,-6,-2,0,2,3,5,-1,2020-11-12 21:46:09.965
-2,-6,-2,0,2,3,5,-1,2020-11-12 21:46:09.970
-2,-6,-2,0,2,3,5,-1,2020-11-12 21:46:09.976
-1,-1,-1,0,0,0,1,7,2020-11-12 21:46:09.982
-1,-1,-1,0,0,0,1,7,2020-11-12 21:46:09.987
-1,-1,-1,0,0,0,1,7,2020-11-12 21:46:10.002
-6,-1,-2,0,0,-2,-3,-11,2020-11-12 21:46:10.008
-6,-1,-2,0,0,-2,-3,-11,2020-11-12 21:46:10.015
-1,-5,-2,-1,2,-3,-3,2,2020-11-12 21:46:10.020
0,0,0,2,2,0,4,2,2020-11-12 21:46:10.026
0,0,0,2,2,0,4,2,2020-11-12 21:46:10.032
0,0,0,-1,2,-4,0,0,2020-11-12 21:46:10.038
0,0,-2,1,8,4,-6,-3,2020-11-12 21:46:10.044
0,0,-2,1,8,4,-6,-3,2020-11-12 21:46:10.050
7,5,2,0,-4,-6,-1,3,2020-11-12 21:46:10.056
-1,-9,-1,4,0,-3,-5,-1,2020-11-12 21:46:10.062
-1,-9,-1,4,0,-3,-5,-1,2020-11-12 21:46:10.068
-1,-9,-1,4,0,-3,-5,-1,2020-11-12 21:46:10.074
-5,1,3,1,-10,-6,-4,-3,2020-11-12 21:46:10.080
-2,0,1,0,-10,-8,-2,-3,2020-11-12 21:46:10.086
-2,0,1,0,-10,-8,-2,-3,2020-11-12 21:46:10.092
3,2,-2,-1,1,11,2,2,2020-11-12 21:46:10.097
5,4,1,-2,0,3,-1,1,2020-11-12 21:46:10.102
5,4,1,-2,0,3,-1,1,2020-11-12 21:46:10.109
-3,-1,-1,-3,3,9,-4,-2,2020-11-12 21:46:10.114
1,0,1,-2,0,-5,5,1,2020-11-12 21:46:10.120
1,0,1,-2,0,-5,5,1,2020-11-12 21:46:10.126
1,0,1,-2,0,-5,5,1,2020-11-12 21:46:10.132
1,0,1,-2,0,-5,5,1,2020-11-12 21:46:10.137
4,15,7,-1,-4,-10,-3,0,2020-11-12 21:46:10.144
4,15,7,-1,-4,-10,-3,0,2020-11-12 21:46:10.149
4,15,7,-1,-4,-10,-3,0,2020-11-12 21:46:10.155
-8,-8,-6,-2,-6,-17,-11,-14,2020-11-12 21:46:10.161
-8,-8,-6,-2,-6,-17,-11,-14,2020-11-12 21:46:10.167
-8,-8,-6,-2,-6,-17,-11,-14,2020-11-12 21:46:10.173
-8,-8,-6,-2,-6,-17,-11,-14,2020-11-12 21:46:10.179
-3,-2,-1,0,-7,-9,3,0,2020-11-12 21:46:10.184
-3,-2,-1,0,-7,-9,3,0,2020-11-12 21:46:10.191
-4,-6,-3,-2,-3,-1,-5,-7,2020-11-12 21:46:10.204
9,2,0,2,2,6,1,5,2020-11-12 21:46:10.210
9,2,0,2,2,6,1,5,2020-11-12 21:46:10.217
-3,-1,-3,-1,2,3,0,1,2020-11-12 21:46:10.223
-3,-1,-3,-1,2,3,0,1,2020-11-12 21:46:10.229
-8,4,1,0,0,5,1,-6,2020-11-12 21:46:10.235
-22,-34,-18,-1,3,8,-4,-6,2020-11-12 21:46:10.242
-22,-34,-18,-1,3,8,-4,-6,2020-11-12 21:46:10.248
-22,-34,-18,-1,3,8,-4,-6,2020-11-12 21:46:10.253
4,3,6,4,6,6,4,11,2020-11-12 21:46:10.260
6,-7,-3,0,0,0,-5,4,2020-11-12 21:46:10.265
6,-7,-3,0,0,0,-5,4,2020-11-12 21:46:10.271
6,-7,-3,0,0,0,-5,4,2020-11-12 21:46:10.277
-4,-11,-6,0,0,4,-3,-4,2020-11-12 21:46:10.284
5,4,4,-2,0,-3,1,2,2020-11-12 21:46:10.291
-3,4,3,2,0,-8,-8,-1,2020-11-12 21:46:10.297
-7,2,1,-1,-3,0,1,-5,2020-11-12 21:46:10.304
-7,2,1,-1,-3,0,1,-5,2020-11-12 21:46:10.311
7,3,-2,-1,-1,10,2,14,2020-11-12 21:46:10.316
-4,0,0,-3,-1,1,0,-5,2020-11-12 21:46:10.322
-4,0,0,-3,-1,1,0,-5,2020-11-12 21:46:10.329
-4,0,0,-3,-1,1,0,-5,2020-11-12 21:46:10.335
-20,4,0,-2,-2,-5,8,9,2020-11-12 21:46:10.341
-20,4,0,-2,-2,-5,8,9,2020-11-12 21:46:10.347
-20,4,0,-2,-2,-5,8,9,2020-11-12 21:46:10.352
-46,5,2,-1,-4,-18,-11,-6,2020-11-12 21:46:10.359
0,8,3,1,0,-2,6,2,2020-11-12 21:46:10.365
0,8,3,1,0,-2,6,2,2020-11-12 21:46:10.371
10,-9,-5,-3,-7,-9,-11,-11,2020-11-12 21:46:10.378
2,0,1,-1,0,1,-19,-3,2020-11-12 21:46:10.384
2,0,1,-1,0,1,-19,-3,2020-11-12 21:46:10.390
2,0,1,-1,0,1,-19,-3,2020-11-12 21:46:10.396
19,1,-1,-3,-3,2,-5,11,2020-11-12 21:46:10.410
-11,-1,1,2,3,9,1,0,2020-11-12 21:46:10.415
18,2,-1,-1,1,-2,1,2,2020-11-12 21:46:10.421
18,2,-1,-1,1,-2,1,2,2020-11-12 21:46:10.428
18,2,-1,-1,1,-2,1,2,2020-11-12 21:46:10.434
0,1,-1,2,1,11,5,-5,2020-11-12 21:46:10.440
2,2,-1,-3,-2,-9,12,10,2020-11-12 21:46:10.447
2,2,-1,-3,-2,-9,12,10,2020-11-12 21:46:10.453
47,-2,-4,-2,-1,-2,-17,1,2020-11-12 21:46:10.459
-51,-5,2,1,-1,-10,-7,-15,2020-11-12 21:46:10.465
-51,-5,2,1,-1,-10,-7,-15,2020-11-12 21:46:10.471
26,-5,-4,-5,-3,-3,1,15,2020-11-12 21:46:10.477
47,20,8,4,3,-2,-11,4,2020-11-12 21:46:10.482
47,20,8,4,3,-2,-11,4,2020-11-12 21:46:10.488
47,20,8,4,3,-2,-11,4,2020-11-12 21:46:10.494
1,-13,-10,-6,-5,-2,-14,-20,2020-11-12 21:46:10.500
9,7,7,5,5,6,19,34,2020-11-12 21:46:10.506
9,7,7,5,5,6,19,34,2020-11-12 21:46:10.512
-59,-16,-7,-6,-7,-13,-7,-28,2020-11-12 21:46:10.518
-59,-16,-7,-6,-7,-13,-7,-28,2020-11-12 21:46:10.524
-59,-16,-7,-6,-7,-13,-7,-28,2020-11-12 21:46:10.530
-59,-16,-7,-6,-7,-13,-7,-28,2020-11-12 21:46:10.536
83,-2,15,6,0,0,-12,-2,2020-11-12 21:46:10.543
83,-2,15,6,0,0,-12,-2,2020-11-12 21:46:10.548
83,-2,15,6,0,0,-12,-2,2020-11-12 21:46:10.554
83,-2,15,6,0,0,-12,-2,2020-11-12 21:46:10.560
-26,-14,-10,-3,0,-35,-16,-24,2020-11-12 21:46:10.566
-26,-14,-10,-3,0,-35,-16,-24,2020-11-12 21:46:10.571
-26,-14,-10,-3,0,-35,-16,-24,2020-11-12 21:46:10.578
-39,-2,-34,-11,-32,21,17,-9,2020-11-12 21:46:10.583
-39,-2,-34,-11,-32,21,17,-9,2020-11-12 21:46:10.589
-39,-2,-34,-11,-32,21,17,-9,2020-11-12 21:46:10.595
-39,-2,-34,-11,-32,21,17,-9,2020-11-12 21:46:10.601
-39,-2,-34,-11,-32,21,17,-9,2020-11-12 21:46:10.614
2,10,25,24,24,-19,6,0,2020-11-12 21:46:10.620
52,-8,-7,-8,8,-41,-6,1,2020-11-12 21:46:10.626
52,-8,-7,-8,8,-41,-6,1,2020-11-12 21:46:10.632
-41,-5,10,0,-12,3,-14,-14,2020-11-12 21:46:10.638
-11,12,-7,3,1,53,12,18,2020-11-12 21:46:10.645
12,-12,-5,-7,1,-17,-5,12,2020-11-12 21:46:10.651
12,-12,-5,-7,1,-17,-5,12,2020-11-12 21:46:10.656
8,-7,4,5,-3,12,-17,-10,2020-11-12 21:46:10.663
1,-9,-12,-7,1,-1,-8,-23,2020-11-12 21:46:10.668
1,-9,-12,-7,1,-1,-8,-23,2020-11-12 21:46:10.676
77,30,0,0,12,-10,24,52,2020-11-12 21:46:10.682
-61,-17,-23,-11,-2,5,0,-8,2020-11-12 21:46:10.687
-61,-17,-23,-11,-2,5,0,-8,2020-11-12 21:46:10.694
24,20,16,9,-2,7,9,9,2020-11-12 21:46:10.700
24,20,16,9,-2,7,9,9,2020-11-12 21:46:10.705
24,20,16,9,-2,7,9,9,2020-11-12 21:46:10.712
24,20,16,9,-2,7,9,9,2020-11-12 21:46:10.717
-21,3,1,1,2,-20,12,-18,2020-11-12 21:46:10.724
-21,3,1,1,2,-20,12,-18,2020-11-12 21:46:10.730
-21,3,1,1,2,-20,12,-18,2020-11-12 21:46:10.735
-125,-19,-6,-3,-8,14,7,-46,2020-11-12 21:46:10.742
14,10,-4,-15,-7,24,10,40,2020-11-12 21:46:10.748
14,10,-4,-15,-7,24,10,40,2020-11-12 21:46:10.754
-14,0,0,8,-1,6,-42,-3,2020-11-12 21:46:10.760
-14,0,0,8,-1,6,-42,-3,2020-11-12 21:46:10.765
-14,0,0,8,-1,6,-42,-3,2020-11-12 21:46:10.771
-14,0,0,8,-1,6,-42,-3,2020-11-12 21:46:10.777
13,5,11,1,-13,-7,2,-5,2020-11-12 21:46:10.783
13,5,11,1,-13,-7,2,-5,2020-11-12 21:46:10.789
13,5,11,1,-13,-7,2,-5,2020-11-12 21:46:10.796
39,7,17,12,11,3,-28,-8,2020-11-12 21:46:10.802
21,5,9,-1,14,-1,-2,10,2020-11-12 21:46:10.816
21,5,9,-1,14,-1,-2,10,2020-11-12 21:46:10.821
-21,-7,-24,-33,-11,-1,54,-13,2020-11-12 21:46:10.844
8,2,20,20,10,2,-5,-22,2020-11-12 21:46:10.850
8,2,20,20,10,2,-5,-22,2020-11-12 21:46:10.855
9,8,21,-7,-14,3,19,-10,2020-11-12 21:46:10.861
-10,-21,18,15,-2,4,-23,51,2020-11-12 21:46:10.867
-10,-21,18,15,-2,4,-23,51,2020-11-12 21:46:10.872
5,32,19,10,14,14,20,32,2020-11-12 21:46:10.879
-18,-15,-3,4,7,4,7,-49,2020-11-12 21:46:10.884
-18,-15,-3,4,7,4,7,-49,2020-11-12 21:46:10.891
-18,-15,-3,4,7,4,7,-49,2020-11-12 21:46:10.896
-28,-12,-65,-16,2,7,-27,-33,2020-11-12 21:46:10.902
-28,-12,-65,-16,2,7,-27,-33,2020-11-12 21:46:10.908
-28,-12,-65,-16,2,7,-27,-33,2020-11-12 21:46:10.914
-39,-37,-85,-33,-16,-17,-17,-44,2020-11-12 21:46:10.920
14,10,37,23,20,-1,-29,18,2020-11-12 21:46:10.926
14,10,37,23,20,-1,-29,18,2020-11-12 21:46:10.932
-5,0,-1,-8,-38,-9,-15,-51,2020-11-12 21:46:10.937
-5,0,-1,-8,-38,-9,-15,-51,2020-11-12 21:46:10.944
21,19,21,1,-33,4,14,36,2020-11-12 21:46:10.950
21,19,21,1,-33,4,14,36,2020-11-12 21:46:10.955
-15,-31,-34,-44,-23,0,-7,-29,2020-11-12 21:46:10.962
-15,-31,-34,-44,-23,0,-7,-29,2020-11-12 21:46:10.967
-15,-31,-34,-44,-23,0,-7,-29,2020-11-12 21:46:10.973
-25,-30,-18,5,4,-15,-9,-19,2020-11-12 21:46:10.980
-2,12,25,21,33,8,3,-21,2020-11-12 21:46:10.985
-2,12,25,21,33,8,3,-21,2020-11-12 21:46:10.992
-7,-11,7,2,2,-6,-8,-19,2020-11-12 21:46:10.998
-7,-11,7,2,2,-6,-8,-19,2020-11-12 21:46:11.004
23,17,39,22,23,13,-38,11,2020-11-12 21:46:11.018
-9,-5,-5,-8,12,0,15,22,2020-11-12 21:46:11.025
-9,-5,-5,-8,12,0,15,22,2020-11-12 21:46:11.031
0,8,-21,-13,-36,-9,-8,8,2020-11-12 21:46:11.036
-8,1,-12,-2,-11,6,14,-7,2020-11-12 21:46:11.043
-8,1,-12,-2,-11,6,14,-7,2020-11-12 21:46:11.048
-8,1,-12,-2,-11,6,14,-7,2020-11-12 21:46:11.054
-28,-3,22,15,18,-8,5,-6,2020-11-12 21:46:11.061
15,6,-43,-18,-8,5,11,9,2020-11-12 21:46:11.066
15,6,-43,-18,-8,5,11,9,2020-11-12 21:46:11.072
15,6,-43,-18,-8,5,11,9,2020-11-12 21:46:11.079
7,11,16,-9,-23,-5,-1,22,2020-11-12 21:46:11.085
7,11,16,-9,-23,-5,-1,22,2020-11-12 21:46:11.091
5,-6,-16,-9,-1,0,8,10,2020-11-12 21:46:11.097
8,-3,4,8,3,6,9,-4,2020-11-12 21:46:11.103
8,-3,4,8,3,6,9,-4,2020-11-12 21:46:11.110
8,-3,4,8,3,6,9,-4,2020-11-12 21:46:11.117
5,-11,-8,-7,1,-2,6,-33,2020-11-12 21:46:11.123
-2,23,16,3,-13,1,5,-1,2020-11-12 21:46:11.134
-2,23,16,3,-13,1,5,-1,2020-11-12 21:46:11.145
-33,-33,-19,1,-1,-8,-10,-26,2020-11-12 21:46:11.163
48,22,-29,-19,-22,2,22,47,2020-11-12 21:46:11.174
29,13,2,-6,7,6,7,39,2020-11-12 21:46:11.186
-1,1,0,12,-1,6,0,-20,2020-11-12 21:46:11.198
5,-4,-8,-13,6,5,0,1,2020-11-12 21:46:11.210
5,-4,-8,-13,6,5,0,1,2020-11-12 21:46:11.239
15,-4,-52,-27,-4,-11,-35,4,2020-11-12 21:46:11.252
-8,0,7,-4,-6,-17,-16,-21,2020-11-12 21:46:11.259
-5,-1,6,7,-1,-3,22,34,2020-11-12 21:46:11.264
-5,-1,6,7,-1,-3,22,34,2020-11-12 21:46:11.270
-7,2,19,0,2,-6,-11,-35,2020-11-12 21:46:11.277
6,1,-2,-1,-14,3,6,13,2020-11-12 21:46:11.283
6,1,-2,-1,-14,3,6,13,2020-11-12 21:46:11.290
6,1,-2,-1,-14,3,6,13,2020-11-12 21:46:11.296
6,1,-2,-1,-14,3,6,13,2020-11-12 21:46:11.303
47,29,5,0,-9,2,-3,34,2020-11-12 21:46:11.311
47,29,5,0,-9,2,-3,34,2020-11-12 21:46:11.317
-27,-16,-6,-12,-15,-11,-9,-32,2020-11-12 21:46:11.323
-27,-16,-6,-12,-15,-11,-9,-32,2020-11-12 21:46:11.329
-27,-16,-6,-12,-15,-11,-9,-32,2020-11-12 21:46:11.335
3,7,-2,-22,-2,3,15,33,2020-11-12 21:46:11.341
4,8,12,-11,-2,0,4,10,2020-11-12 21:46:11.347
4,8,12,-11,-2,0,4,10,2020-11-12 21:46:11.353
32,-1,8,6,-7,-8,-13,12,2020-11-12 21:46:11.359
-20,-14,-2,-5,1,4,-1,-23,2020-11-12 21:46:11.365
-20,-14,-2,-5,1,4,-1,-23,2020-11-12 21:46:11.370
-20,-14,-2,-5,1,4,-1,-23,2020-11-12 21:46:11.378
-5,-10,-6,-7,-2,-2,-5,-13,2020-11-12 21:46:11.383
-5,-10,-6,-7,-2,-2,-5,-13,2020-11-12 21:46:11.389
-5,-10,-6,-7,-2,-2,-5,-13,2020-11-12 21:46:11.396
-4,-14,-11,-5,-5,0,12,20,2020-11-12 21:46:11.402
-19,-9,-45,-8,4,1,-1,-20,2020-11-12 21:46:11.408
-19,-9,-45,-8,4,1,-1,-20,2020-11-12 21:46:11.414
13,7,5,2,-4,-2,2,9,2020-11-12 21:46:11.429
-13,-3,4,-3,-5,-6,-10,-22,2020-11-12 21:46:11.434
-7,2,0,1,-2,-3,4,-1,2020-11-12 21:46:11.440
0,2,-1,6,3,9,-5,-12,2020-11-12 21:46:11.446
0,2,-1,6,3,9,-5,-12,2020-11-12 21:46:11.452
-4,2,1,6,12,5,13,11,2020-11-12 21:46:11.459
2,4,9,7,2,2,4,11,2020-11-12 21:46:11.465
2,4,9,7,2,2,4,11,2020-11-12 21:46:11.470
2,4,9,7,2,2,4,11,2020-11-12 21:46:11.476
7,-9,-4,2,6,3,-4,10,2020-11-12 21:46:11.482
-4,-3,-2,5,-2,1,-1,-12,2020-11-12 21:46:11.488
-4,-3,-2,5,-2,1,-1,-12,2020-11-12 21:46:11.495
3,-2,-9,2,4,3,-1,6,2020-11-12 21:46:11.501
3,-2,-9,2,4,3,-1,6,2020-11-12 21:46:11.506
3,-2,-9,2,4,3,-1,6,2020-11-12 21:46:11.513
-3,-3,-11,2,0,-1,-12,3,2020-11-12 21:46:11.518
-1,-4,-16,-1,-1,-2,-3,0,2020-11-12 21:46:11.525
-1,-4,-16,-1,-1,-2,-3,0,2020-11-12 21:46:11.531
-3,-2,-31,10,12,0,-12,-3,2020-11-12 21:46:11.536
-3,-2,-31,10,12,0,-12,-3,2020-11-12 21:46:11.543
-3,5,0,-14,-43,-15,-2,-23,2020-11-12 21:46:11.548
-3,5,0,-14,-43,-15,-2,-23,2020-11-12 21:46:11.554
-3,5,0,-14,-43,-15,-2,-23,2020-11-12 21:46:11.560
-3,5,0,-14,-43,-15,-2,-23,2020-11-12 21:46:11.566
4,-5,3,0,-2,-14,5,6,2020-11-12 21:46:11.572
-5,0,7,-3,0,-4,7,12,2020-11-12 21:46:11.579
-2,0,6,0,14,5,-2,5,2020-11-12 21:46:11.586
-2,0,6,0,14,5,-2,5,2020-11-12 21:46:11.592
1,-6,-5,-4,6,2,-3,-17,2020-11-12 21:46:11.598
1,-6,-5,-4,6,2,-3,-17,2020-11-12 21:46:11.603
16,10,10,2,7,4,11,29,2020-11-12 21:46:11.610
16,10,10,2,7,4,11,29,2020-11-12 21:46:11.616
-3,-1,-1,-3,1,10,-2,-6,2020-11-12 21:46:11.630
-3,-1,-1,-3,1,10,-2,-6,2020-11-12 21:46:11.635
-3,-1,-1,-3,1,10,-2,-6,2020-11-12 21:46:11.642
3,2,17,18,1,-8,-2,3,2020-11-12 21:46:11.647
3,2,17,18,1,-8,-2,3,2020-11-12 21:46:11.653
-15,-15,3,-5,10,-5,-17,-32,2020-11-12 21:46:11.660
-1,8,28,17,16,8,22,18,2020-11-12 21:46:11.666
-1,8,28,17,16,8,22,18,2020-11-12 21:46:11.672
-1,8,28,17,16,8,22,18,2020-11-12 21:46:11.678
-13,-13,-7,-9,7,-2,-6,-43,2020-11-12 21:46:11.684
-13,-13,-7,-9,7,-2,-6,-43,2020-11-12 21:46:11.690
-13,-13,-7,-9,7,-2,-6,-43,2020-11-12 21:46:11.696
-13,-13,-7,-9,7,-2,-6,-43,2020-11-12 21:46:11.702
11,1,9,1,1,-1,24,46,2020-11-12 21:46:11.706
11,1,9,1,1,-1,24,46,2020-11-12 21:46:11.713
14,-2,-3,2,-2,-1,-12,-2,2020-11-12 21:46:11.720
-28,-11,-9,1,-8,-2,-11,1,2020-11-12 21:46:11.726
-28,-11,-9,1,-8,-2,-11,1,2020-11-12 21:46:11.732
-28,-11,-9,1,-8,-2,-11,1,2020-11-12 21:46:11.737
2,6,-6,-11,-9,-2,9,-12,2020-11-12 21:46:11.744
-11,-4,-17,-11,1,2,-27,-24,2020-11-12 21:46:11.750
-11,-4,-17,-11,1,2,-27,-24,2020-11-12 21:46:11.755
-11,-4,-17,-11,1,2,-27,-24,2020-11-12 21:46:11.763
7,8,7,1,15,9,-8,-28,2020-11-12 21:46:11.768
7,8,7,1,15,9,-8,-28,2020-11-12 21:46:11.775
16,11,18,22,-4,2,13,49,2020-11-12 21:46:11.781
19,8,9,-8,-2,-1,14,25,2020-11-12 21:46:11.786
19,8,9,-8,-2,-1,14,25,2020-11-12 21:46:11.793
19,8,9,-8,-2,-1,14,25,2020-11-12 21:46:11.798
-25,-10,2,3,10,6,-14,-48,2020-11-12 21:46:11.804
-3,-4,-3,-13,-15,-2,9,-52,2020-11-12 21:46:11.811
-3,-4,-3,-13,-15,-2,9,-52,2020-11-12 21:46:11.816
-3,-4,-3,-13,-15,-2,9,-52,2020-11-12 21:46:11.831
6,-9,-9,1,-1,-8,13,69,2020-11-12 21:46:11.836
31,9,-26,-3,-3,-8,4,1,2020-11-12 21:46:11.843
-30,-18,-13,7,8,-2,4,-29,2020-11-12 21:46:11.849
-30,-18,-13,7,8,-2,4,-29,2020-11-12 21:46:11.855
-7,0,42,25,0,3,31,36,2020-11-12 21:46:11.861
13,-7,-16,0,15,4,-12,30,2020-11-12 21:46:11.867
13,-7,-16,0,15,4,-12,30,2020-11-12 21:46:11.873
13,-7,-16,0,15,4,-12,30,2020-11-12 21:46:11.880
-28,-10,-4,-8,-28,1,-32,-42,2020-11-12 21:46:11.885
-28,-10,-4,-8,-28,1,-32,-42,2020-11-12 21:46:11.891
-28,-10,-4,-8,-28,1,-32,-42,2020-11-12 21:46:11.897
8,3,1,-2,2,-7,7,72,2020-11-12 21:46:11.903
7,4,-2,-4,5,-2,24,-5,2020-11-12 21:46:11.910
7,4,-2,-4,5,-2,24,-5,2020-11-12 21:46:11.915
-19,-17,-5,-2,6,-14,-50,-64,2020-11-12 21:46:11.921
-19,-17,-5,-2,6,-14,-50,-64,2020-11-12 21:46:11.943
13,4,-8,-6,-26,23,-8,13,2020-11-12 21:46:11.948
13,4,-8,-6,-26,23,-8,13,2020-11-12 21:46:11.954
-2,-10,-20,-26,-6,22,6,-18,2020-11-12 21:46:11.961
7,8,20,9,15,17,-6,7,2020-11-12 21:46:11.966
7,8,20,9,15,17,-6,7,2020-11-12 21:46:11.972
7,8,20,9,15,17,-6,7,2020-11-12 21:46:11.979
16,8,-4,-5,-1,-1,13,2,2020-11-12 21:46:11.985
41,8,-4,-6,0,-19,0,-3,2020-11-12 21:46:11.990
41,8,-4,-6,0,-19,0,-3,2020-11-12 21:46:11.996
41,8,-4,-6,0,-19,0,-3,2020-11-12 21:46:12.002
-4,1,-1,1,-5,11,7,60,2020-11-12 21:46:12.008
-4,1,-1,1,-5,11,7,60,2020-11-12 21:46:12.016
16,11,1,-1,-4,5,1,35,2020-11-12 21:46:12.022
39,11,7,8,11,-1,16,44,2020-11-12 21:46:12.035
-14,-7,-15,1,-2,-6,-19,-6,2020-11-12 21:46:12.040
-14,-7,-15,1,-2,-6,-19,-6,2020-11-12 21:46:12.047
-24,-9,-5,-5,7,-9,19,33,2020-11-12 21:46:12.053
-24,-9,-5,-5,7,-9,19,33,2020-11-12 21:46:12.060
-34,-24,-68,-25,-20,-18,-24,-58,2020-11-12 21:46:12.065
-34,-24,-68,-25,-20,-18,-24,-58,2020-11-12 21:46:12.071
-34,-24,-68,-25,-20,-18,-24,-58,2020-11-12 21:46:12.077
-22,-15,3,8,-2,-9,-1,-11,2020-11-12 21:46:12.083
-35,-11,-7,0,2,-1,-36,-77,2020-11-12 21:46:12.089
-35,-11,-7,0,2,-1,-36,-77,2020-11-12 21:46:12.095
13,4,-1,-2,5,7,-10,-13,2020-11-12 21:46:12.102
21,11,14,5,10,6,6,24,2020-11-12 21:46:12.109
21,11,14,5,10,6,6,24,2020-11-12 21:46:12.115
21,11,14,5,10,6,6,24,2020-11-12 21:46:12.120
-15,-5,6,6,2,5,-9,-18,2020-11-12 21:46:12.127
-15,-5,6,6,2,5,-9,-18,2020-11-12 21:46:12.133
17,8,3,-1,-3,0,19,28,2020-11-12 21:46:12.138
17,8,3,-1,-3,0,19,28,2020-11-12 21:46:12.145
-50,-11,-3,-3,-2,1,-4,-109,2020-11-12 21:46:12.152
-50,-11,-3,-3,-2,1,-4,-109,2020-11-12 21:46:12.158
-48,-44,-8,-2,6,-2,-11,-91,2020-11-12 21:46:12.164
-5,-1,14,-6,-9,-8,-11,-20,2020-11-12 21:46:12.170
-5,-1,14,-6,-9,-8,-11,-20,2020-11-12 21:46:12.176
-5,-1,14,-6,-9,-8,-11,-20,2020-11-12 21:46:12.182
14,4,8,2,3,10,21,44,2020-11-12 21:46:12.187
14,4,8,2,3,10,21,44,2020-11-12 21:46:12.194
26,17,8,17,-3,2,9,37,2020-11-12 21:46:12.200
16,7,-16,-1,4,-7,-10,10,2020-11-12 21:46:12.206
16,7,-16,-1,4,-7,-10,10,2020-11-12 21:46:12.213
16,7,-16,-1,4,-7,-10,10,2020-11-12 21:46:12.220
4,7,9,3,2,-1,4,34,2020-11-12 21:46:12.227
3,-4,11,14,17,7,-16,26,2020-11-12 21:46:12.240
4,-8,-3,-1,-8,-3,2,20,2020-11-12 21:46:12.246
4,-8,-3,-1,-8,-3,2,20,2020-11-12 21:46:12.252
4,-8,-3,-1,-8,-3,2,20,2020-11-12 21:46:12.257
26,21,4,-2,6,0,-5,7,2020-11-12 21:46:12.264
15,6,4,2,-1,18,-1,39,2020-11-12 21:46:12.270
15,6,4,2,-1,18,-1,39,2020-11-12 21:46:12.276
-7,-9,-15,-13,-8,-2,-4,10,2020-11-12 21:46:12.284
-4,0,16,4,3,-5,-23,-52,2020-11-12 21:46:12.289
-4,0,16,4,3,-5,-23,-52,2020-11-12 21:46:12.296
-4,0,16,4,3,-5,-23,-52,2020-11-12 21:46:12.302
-7,-4,-6,-9,-14,-7,4,12,2020-11-12 21:46:12.308
-7,-4,-6,-9,-14,-7,4,12,2020-11-12 21:46:12.315
-21,-8,0,5,17,6,8,-14,2020-11-12 21:46:12.321
11,3,2,1,13,-6,-13,5,2020-11-12 21:46:12.327
11,3,2,1,13,-6,-13,5,2020-11-12 21:46:12.333
11,3,2,1,13,-6,-13,5,2020-11-12 21:46:12.338
-8,-1,11,17,-6,-8,-5,-23,2020-11-12 21:46:12.345
38,13,-9,-22,-8,-13,8,100,2020-11-12 21:46:12.350
38,13,-9,-22,-8,-13,8,100,2020-11-12 21:46:12.355
38,13,-9,-22,-8,-13,8,100,2020-11-12 21:46:12.362
-17,-2,0,6,7,1,12,-42,2020-11-12 21:46:12.368
-17,-2,0,6,7,1,12,-42,2020-11-12 21:46:12.374
1,-4,-5,-5,-1,0,-14,-27,2020-11-12 21:46:12.382
1,2,-3,3,-4,2,-11,17,2020-11-12 21:46:12.387
1,2,-3,3,-4,2,-11,17,2020-11-12 21:46:12.394
1,2,-3,3,-4,2,-11,17,2020-11-12 21:46:12.399
-6,3,-6,0,6,2,-19,-23,2020-11-12 21:46:12.404
1,0,0,-2,-19,-12,-20,-32,2020-11-12 21:46:12.411
1,0,0,-2,-19,-12,-20,-32,2020-11-12 21:46:12.416
1,0,0,-2,-19,-12,-20,-32,2020-11-12 21:46:12.422
44,18,7,5,-2,0,30,49,2020-11-12 21:46:12.428
44,18,7,5,-2,0,30,49,2020-11-12 21:46:12.443
-20,-20,-23,-21,-8,-7,0,-12,2020-11-12 21:46:12.448
-20,-20,-23,-21,-8,-7,0,-12,2020-11-12 21:46:12.454
-13,-6,-2,-6,2,4,8,12,2020-11-12 21:46:12.461
14,3,6,0,-4,-1,14,65,2020-11-12 21:46:12.466
-23,-10,2,12,1,3,2,-30,2020-11-12 21:46:12.472
-23,-10,2,12,1,3,2,-30,2020-11-12 21:46:12.479
-21,-9,1,0,0,6,-1,-47,2020-11-12 21:46:12.484
-21,-9,1,0,0,6,-1,-47,2020-11-12 21:46:12.490
-21,-9,1,0,0,6,-1,-47,2020-11-12 21:46:12.496
11,9,3,1,1,-30,7,2,2020-11-12 21:46:12.502
3,-2,-35,-23,-11,17,20,4,2020-11-12 21:46:12.508
3,-2,-35,-23,-11,17,20,4,2020-11-12 21:46:12.514
3,-2,-35,-23,-11,17,20,4,2020-11-12 21:46:12.520
66,13,3,1,-2,43,30,113,2020-11-12 21:46:12.526
-1,-3,16,14,9,6,-1,15,2020-11-12 21:46:12.533
-1,-3,16,14,9,6,-1,15,2020-11-12 21:46:12.538
-21,-4,0,0,17,13,-7,-35,2020-11-12 21:46:12.545
-21,-4,0,0,17,13,-7,-35,2020-11-12 21:46:12.551
-21,-4,0,0,17,13,-7,-35,2020-11-12 21:46:12.556
-21,-4,0,0,17,13,-7,-35,2020-11-12 21:46:12.563
-17,-3,3,0,-5,-33,-20,-71,2020-11-12 21:46:12.568
-17,-3,3,0,-5,-33,-20,-71,2020-11-12 21:46:12.574
0,-5,4,1,4,-32,-10,73,2020-11-12 21:46:12.581
0,-5,4,1,4,-32,-10,73,2020-11-12 21:46:12.586
6,4,4,5,-1,-16,-1,17,2020-11-12 21:46:12.593
6,4,4,5,-1,-16,-1,17,2020-11-12 21:46:12.599
-14,-7,-17,-10,2,-1,-1,-10,2020-11-12 21:46:12.604
-14,-7,-17,-10,2,-1,-1,-10,2020-11-12 21:46:12.611
-14,-7,-17,-10,2,-1,-1,-10,2020-11-12 21:46:12.616
0,0,-9,-5,16,-19,-30,-7,2020-11-12 21:46:12.622
28,9,25,20,8,9,25,53,2020-11-12 21:46:12.629
28,9,25,20,8,9,25,53,2020-11-12 21:46:12.643
-21,-8,-2,-6,-4,7,-6,-35,2020-11-12 21:46:12.648
-21,-8,-2,-6,-4,7,-6,-35,2020-11-12 21:46:12.654
-21,-8,-2,-6,-4,7,-6,-35,2020-11-12 21:46:12.661
7,6,8,7,3,2,2,6,2020-11-12 21:46:12.667
7,6,8,7,3,2,2,6,2020-11-12 21:46:12.673
-9,1,-4,-5,-20,1,-14,-39,2020-11-12 21:46:12.680
24,11,13,8,8,-18,-22,28,2020-11-12 21:46:12.685
24,11,13,8,8,-18,-22,28,2020-11-12 21:46:12.691
24,11,13,8,8,-18,-22,28,2020-11-12 21:46:12.698
24,11,13,8,8,-18,-22,28,2020-11-12 21:46:12.703
3,6,7,2,-7,2,-32,-40,2020-11-12 21:46:12.709
3,6,7,2,-7,2,-32,-40,2020-11-12 21:46:12.715
3,6,7,2,-7,2,-32,-40,2020-11-12 21:46:12.721
5,7,5,12,0,-1,15,-8,2020-11-12 21:46:12.727
-15,-7,-10,-5,-4,3,11,-23,2020-11-12 21:46:12.733
-17,-9,-2,-15,-7,-4,-10,-25,2020-11-12 21:46:12.738
-17,-9,-2,-15,-7,-4,-10,-25,2020-11-12 21:46:12.745
-18,-9,-6,-5,1,0,-15,-45,2020-11-12 21:46:12.751
-18,-9,-6,-5,1,0,-15,-45,2020-11-12 21:46:12.757
-10,0,10,4,-19,-9,-4,-23,2020-11-12 21:46:12.764
2,2,-2,-9,-9,-1,3,22,2020-11-12 21:46:12.769
2,2,-2,-9,-9,-1,3,22,2020-11-12 21:46:12.775
2,2,-2,-9,-9,-1,3,22,2020-11-12 21:46:12.781
-10,-2,0,3,16,7,0,-19,2020-11-12 21:46:12.786
3,3,2,1,-42,-2,0,-13,2020-11-12 21:46:12.793
17,5,7,1,12,6,0,28,2020-11-12 21:46:12.799
1,-2,-5,1,20,3,9,10,2020-11-12 21:46:12.805
1,-2,-5,1,20,3,9,10,2020-11-12 21:46:12.811
1,-2,-5,1,20,3,9,10,2020-11-12 21:46:12.817
-8,-4,0,3,7,-2,8,-18,2020-11-12 21:46:12.822
-8,-4,0,3,7,-2,8,-18,2020-11-12 21:46:12.829
-8,-4,0,3,7,-2,8,-18,2020-11-12 21:46:12.843
0,2,2,0,10,1,-5,-10,2020-11-12 21:46:12.848
3,-2,-5,-3,-4,10,18,17,2020-11-12 21:46:12.854
3,-2,-5,-3,-4,10,18,17,2020-11-12 21:46:12.861
7,3,3,0,0,0,7,27,2020-11-12 21:46:12.867
7,3,3,0,0,0,7,27,2020-11-12 21:46:12.872
7,3,3,0,0,0,7,27,2020-11-12 21:46:12.878
1,-2,2,-2,-1,2,0,-1,2020-11-12 21:46:12.884
1,1,3,4,8,0,-11,-12,2020-11-12 21:46:12.890
1,1,3,4,8,0,-11,-12,2020-11-12 21:46:12.897
1,1,3,4,8,0,-11,-12,2020-11-12 21:46:12.902
1,1,3,4,8,0,-11,-12,2020-11-12 21:46:12.908
-3,-2,2,2,8,11,9,13,2020-11-12 21:46:12.914
-3,-2,2,2,8,11,9,13,2020-11-12 21:46:12.920
-3,-2,2,2,8,11,9,13,2020-11-12 21:46:12.926
-3,-2,2,2,8,11,9,13,2020-11-12 21:46:12.932
1,2,1,-2,-4,-7,-6,-4,2020-11-12 21:46:12.938
1,1,2,2,4,4,-1,-4,2020-11-12 21:46:12.945
4,1,0,-4,-2,-4,-1,1,2020-11-12 21:46:12.951
4,1,0,-4,-2,-4,-1,1,2020-11-12 21:46:12.956
-6,-2,1,4,3,-3,-7,-9,2020-11-12 21:46:12.963
-6,-2,1,4,3,-3,-7,-9,2020-11-12 21:46:12.984
8,8,-4,-7,-11,-31,-1,12,2020-11-12 21:46:12.990
-8,-8,0,1,1,-5,-11,-33,2020-11-12 21:46:12.997
3,-3,-1,-4,-3,-5,-7,1,2020-11-12 21:46:13.003
7,10,7,-14,8,15,28,15,2020-11-12 21:46:13.010
7,10,7,-14,8,15,28,15,2020-11-12 21:46:13.016
7,10,7,-14,8,15,28,15,2020-11-12 21:46:13.022
-5,-5,-8,-10,-7,-1,-3,-4,2020-11-12 21:46:13.028
3,9,-11,16,4,2,0,0,2020-11-12 21:46:13.036
3,9,-11,16,4,2,0,0,2020-11-12 21:46:13.052
8,28,26,24,-4,5,0,4,2020-11-12 21:46:13.057
-7,6,18,23,-4,-5,-5,-10,2020-11-12 21:46:13.064
-4,-6,-5,-17,-1,4,-6,-1,2020-11-12 21:46:13.070
-4,-6,-5,-17,-1,4,-6,-1,2020-11-12 21:46:13.074
-4,-6,-5,-17,-1,4,-6,-1,2020-11-12 21:46:13.082
8,14,-2,-19,-4,1,5,7,2020-11-12 21:46:13.087
-6,-14,-54,-56,3,3,-1,3,2020-11-12 21:46:13.094
-6,-14,-54,-56,3,3,-1,3,2020-11-12 21:46:13.099
-6,-14,-54,-56,3,3,-1,3,2020-11-12 21:46:13.105
-2,-13,12,23,1,-2,-2,-1,2020-11-12 21:46:13.111
-2,-13,12,23,1,-2,-2,-1,2020-11-12 21:46:13.117
3,4,1,-21,1,10,2,0,2020-11-12 21:46:13.123
3,4,1,-21,1,10,2,0,2020-11-12 21:46:13.130
-11,-20,-3,9,-5,9,1,-6,2020-11-12 21:46:13.135
-11,-20,-3,9,-5,9,1,-6,2020-11-12 21:46:13.141
5,9,8,-8,-1,-1,2,5,2020-11-12 21:46:13.148
-2,-2,3,-2,3,25,0,1,2020-11-12 21:46:13.155
-2,-2,3,-2,3,25,0,1,2020-11-12 21:46:13.162
2,1,4,27,-1,-3,10,2,2020-11-12 21:46:13.167
2,1,4,27,-1,-3,10,2,2020-11-12 21:46:13.173
2,1,4,27,-1,-3,10,2,2020-11-12 21:46:13.180
-5,-5,-4,-10,-4,-15,-8,-7,2020-11-12 21:46:13.186
-10,-6,6,5,9,10,2,-8,2020-11-12 21:46:13.192
-10,-6,6,5,9,10,2,-8,2020-11-12 21:46:13.200
-1,-1,-2,-16,-18,-53,-27,-9,2020-11-12 21:46:13.205
-12,-11,4,29,14,-16,-7,-11,2020-11-12 21:46:13.212
-12,-11,4,29,14,-16,-7,-11,2020-11-12 21:46:13.217
-12,-11,4,29,14,-16,-7,-11,2020-11-12 21:46:13.223
-7,-8,-5,-13,-19,-60,-18,-9,2020-11-12 21:46:13.230
-7,-8,-5,-13,-19,-60,-18,-9,2020-11-12 21:46:13.236
-8,-4,-3,-8,-6,-26,-33,-25,2020-11-12 21:46:13.241
-8,-4,-3,-8,-6,-26,-33,-25,2020-11-12 21:46:13.256
6,7,2,-7,13,65,-25,-21,2020-11-12 21:46:13.262
-7,-3,2,12,5,-13,8,3,2020-11-12 21:46:13.268
-1,4,1,-3,11,23,38,25,2020-11-12 21:46:13.274
-1,4,1,-3,11,23,38,25,2020-11-12 21:46:13.283
4,1,1,-7,-7,-9,11,13,2020-11-12 21:46:13.290
4,1,1,-7,-7,-9,11,13,2020-11-12 21:46:13.297
4,1,1,-7,-7,-9,11,13,2020-11-12 21:46:13.304
1,1,0,8,16,-11,-7,-13,2020-11-12 21:46:13.310
5,3,3,4,5,47,41,22,2020-11-12 21:46:13.317
3,1,2,2,14,16,2,12,2020-11-12 21:46:13.322
3,1,2,2,14,16,2,12,2020-11-12 21:46:13.330
4,1,0,-5,19,-22,-27,-15,2020-11-12 21:46:13.335
4,1,0,-5,19,-22,-27,-15,2020-11-12 21:46:13.341
0,0,-2,-3,26,7,21,11,2020-11-12 21:46:13.347
0,0,-2,-3,26,7,21,11,2020-11-12 21:46:13.352
0,0,-2,-3,26,7,21,11,2020-11-12 21:46:13.358
-13,-5,2,6,-23,-9,3,-11,2020-11-12 21:46:13.365
15,1,2,-4,-60,-13,19,15,2020-11-12 21:46:13.371
15,1,2,-4,-60,-13,19,15,2020-11-12 21:46:13.377
15,1,2,-4,-60,-13,19,15,2020-11-12 21:46:13.383
30,10,6,7,14,25,15,27,2020-11-12 21:46:13.389
-33,-9,0,1,16,6,-29,-41,2020-11-12 21:46:13.396
-33,-9,0,1,16,6,-29,-41,2020-11-12 21:46:13.402
4,3,2,3,20,24,-6,5,2020-11-12 21:46:13.407
4,3,2,3,20,24,-6,5,2020-11-12 21:46:13.413
4,3,2,3,20,24,-6,5,2020-11-12 21:46:13.419
2,3,-3,-5,-13,11,-2,9,2020-11-12 21:46:13.425
-19,-10,-3,1,10,-41,4,9,2020-11-12 21:46:13.432
-19,-10,-3,1,10,-41,4,9,2020-11-12 21:46:13.437
-9,-4,-4,-4,1,-66,1,7,2020-11-12 21:46:13.443
-9,-4,-4,-4,1,-66,1,7,2020-11-12 21:46:13.457
0,7,3,1,-7,-25,6,5,2020-11-12 21:46:13.464
17,-2,3,-2,-38,11,13,19,2020-11-12 21:46:13.469
17,-2,3,-2,-38,11,13,19,2020-11-12 21:46:13.474
17,-2,3,-2,-38,11,13,19,2020-11-12 21:46:13.482
-10,-20,-14,-3,16,5,-24,-25,2020-11-12 21:46:13.487
-10,-20,-14,-3,16,5,-24,-25,2020-11-12 21:46:13.494
-10,-20,-14,-3,16,5,-24,-25,2020-11-12 21:46:13.500
-16,7,1,3,6,11,13,-14,2020-11-12 21:46:13.505
-56,-11,4,5,18,13,3,7,2020-11-12 21:46:13.512
-56,-11,4,5,18,13,3,7,2020-11-12 21:46:13.517
-56,-11,4,5,18,13,3,7,2020-11-12 21:46:13.523
103,17,2,-4,-10,-3,-16,4,2020-11-12 21:46:13.532
103,17,2,-4,-10,-3,-16,4,2020-11-12 21:46:13.540
-41,2,14,8,16,12,17,61,2020-11-12 21:46:13.551
37,14,-1,1,11,4,-7,4,2020-11-12 21:46:13.557
-12,-17,-16,-9,3,-13,-32,-38,2020-11-12 21:46:13.565
-33,-14,-3,0,12,3,-6,-5,2020-11-12 21:46:13.571
-33,-14,-3,0,12,3,-6,-5,2020-11-12 21:46:13.577
-33,-14,-3,0,12,3,-6,-5,2020-11-12 21:46:13.583
-39,5,13,5,0,6,-17,-34,2020-11-12 21:46:13.589
-39,5,13,5,0,6,-17,-34,2020-11-12 21:46:13.598
28,21,11,0,2,4,0,30,2020-11-12 21:46:13.604
12,3,-9,-6,-7,0,3,10,2020-11-12 21:46:13.611
12,3,-9,-6,-7,0,3,10,2020-11-12 21:46:13.617
-20,-4,3,3,-4,-6,-7,-24,2020-11-12 21:46:13.623
-20,-13,-6,-3,7,-3,-11,-36,2020-11-12 21:46:13.630
-31,-12,-7,-4,-11,-6,2,23,2020-11-12 21:46:13.636
-31,-12,-7,-4,-11,-6,2,23,2020-11-12 21:46:13.641
21,10,0,0,-1,-3,7,-9,2020-11-12 21:46:13.648
-17,7,8,3,4,6,10,-23,2020-11-12 21:46:13.662
14,-4,-1,1,-1,-2,-6,13,2020-11-12 21:46:13.668
14,-4,-1,1,-1,-2,-6,13,2020-11-12 21:46:13.674
14,-4,-1,1,-1,-2,-6,13,2020-11-12 21:46:13.681
-86,-32,-14,-6,-4,-1,-10,-24,2020-11-12 21:46:13.686
-63,18,11,2,-3,5,15,17,2020-11-12 21:46:13.692
-63,18,11,2,-3,5,15,17,2020-11-12 21:46:13.700
-48,-21,-10,-8,-12,-7,-17,-85,2020-11-12 21:46:13.707
-30,-14,-3,0,3,2,3,16,2020-11-12 21:46:13.715
-30,-14,-3,0,3,2,3,16,2020-11-12 21:46:13.721
-30,-14,-3,0,3,2,3,16,2020-11-12 21:46:13.727
101,-5,-9,-8,-6,-12,-24,-26,2020-11-12 21:46:13.733
101,-5,-9,-8,-6,-12,-24,-26,2020-11-12 21:46:13.738
-55,38,23,15,15,24,12,13,2020-11-12 21:46:13.745
81,-26,-12,-1,-9,-10,-37,4,2020-11-12 21:46:13.751
81,-26,-12,-1,-9,-10,-37,4,2020-11-12 21:46:13.756
81,-26,-12,-1,-9,-10,-37,4,2020-11-12 21:46:13.763
62,21,1,0,-4,-6,-3,64,2020-11-12 21:46:13.769
-45,-7,6,5,0,-3,-11,-12,2020-11-12 21:46:13.775
-45,-7,6,5,0,-3,-11,-12,2020-11-12 21:46:13.781
-45,-7,6,5,0,-3,-11,-12,2020-11-12 21:46:13.786
52,13,3,-6,-13,3,8,8,2020-11-12 21:46:13.792
52,13,3,-6,-13,3,8,8,2020-11-12 21:46:13.800
72,2,-9,-1,-4,-4,-5,27,2020-11-12 21:46:13.805
-27,20,7,2,5,3,7,-22,2020-11-12 21:46:13.812
-27,20,7,2,5,3,7,-22,2020-11-12 21:46:13.818
-27,20,7,2,5,3,7,-22,2020-11-12 21:46:13.824
49,24,17,5,3,-4,32,78,2020-11-12 21:46:13.830
5,6,-6,-4,-1,1,3,-6,2020-11-12 21:46:13.835
5,6,-6,-4,-1,1,3,-6,2020-11-12 21:46:13.841
5,6,-6,-4,-1,1,3,-6,2020-11-12 21:46:13.847
-11,5,0,1,0,1,12,3,2020-11-12 21:46:13.853
-11,5,0,1,0,1,12,3,2020-11-12 21:46:13.867
-20,-14,2,-2,7,3,10,3,2020-11-12 21:46:13.873
