Raw EMG - Pod01,Raw EMG - Pod02,Raw EMG - Pod03,Raw EMG - Pod04,Raw EMG - Pod05,Raw EMG - Pod06,Raw EMG - Pod07,Raw EMG - Pod08,Timestamp
-2,6,2,-3,-2,-2,-1,-3,2020-10-19 09:58:22.227
-1,7,5,-1,-5,-4,-2,-1,2020-10-19 09:58:22.277
0,-2,26,3,1,-1,-2,0,2020-10-19 09:58:22.293
-5,-10,1,-6,-7,-9,-4,-2,2020-10-19 09:58:22.310
1,-2,-5,0,5,2,-1,2,2020-10-19 09:58:22.326
1,12,1,0,3,-2,-1,0,2020-10-19 09:58:22.343
0,4,21,-3,-5,-6,-4,-3,2020-10-19 09:58:22.368
-2,-11,-1,10,4,4,1,-2,2020-10-19 09:58:22.377
-3,-4,9,-2,-15,-9,-2,-1,2020-10-19 09:58:22.393
0,6,7,-6,-6,-1,4,0,2020-10-19 09:58:22.410
3,-4,-35,-5,-17,-7,6,1,2020-10-19 09:58:22.427
-6,-13,-9,7,20,-7,-14,-7,2020-10-19 09:58:22.444
-2,-6,-11,-1,1,5,4,0,2020-10-19 09:58:22.461
-1,-7,4,1,5,-4,-6,-1,2020-10-19 09:58:22.477
-2,-1,-2,-1,-9,-10,-4,-1,2020-10-19 09:58:22.493
-3,18,14,-4,-7,-6,-2,0,2020-10-19 09:58:22.511
-1,-2,1,6,16,4,-3,-1,2020-10-19 09:58:22.527
1,-2,-8,-1,-4,-8,-6,-3,2020-10-19 09:58:22.544
1,-2,-8,-1,-4,-8,-6,-3,2020-10-19 09:58:22.561
-2,2,4,-2,-7,-7,-2,1,2020-10-19 09:58:22.577
6,11,15,2,-6,-6,-1,-2,2020-10-19 09:58:22.593
-2,1,15,-1,-5,1,2,0,2020-10-19 09:58:22.610
-3,-7,11,-6,-16,-8,-6,-2,2020-10-19 09:58:22.626
-3,-7,-1,1,0,-10,-6,-1,2020-10-19 09:58:22.644
0,-3,-4,4,6,6,-2,-1,2020-10-19 09:58:22.660
4,3,-5,-2,-3,-1,3,1,2020-10-19 09:58:22.677
3,23,12,0,-9,0,0,2,2020-10-19 09:58:22.694
-5,-4,9,6,8,-3,-2,1,2020-10-19 09:58:22.711
-4,-7,-12,0,3,5,-5,-4,2020-10-19 09:58:22.727
0,10,9,1,-1,-7,0,-2,2020-10-19 09:58:22.744
-1,0,-6,-2,3,-3,-4,0,2020-10-19 09:58:22.761
-2,10,20,0,-6,0,-3,-2,2020-10-19 09:58:22.778
0,-4,-3,-10,-20,-16,-6,-4,2020-10-19 09:58:22.794
11,12,19,8,0,4,4,5,2020-10-19 09:58:22.811
4,-2,-3,5,23,7,6,2,2020-10-19 09:58:22.828
-11,-6,-8,3,9,1,0,-9,2020-10-19 09:58:22.844
2,0,-7,-7,-8,2,0,1,2020-10-19 09:58:22.861
-7,10,2,3,7,3,3,2,2020-10-19 09:58:22.878
5,8,9,4,4,-1,-4,2,2020-10-19 09:58:22.894
-5,-4,-10,-3,2,1,0,-7,2020-10-19 09:58:22.911
-3,-4,-12,-21,-34,-4,0,0,2020-10-19 09:58:22.928
-16,-1,9,0,-4,-3,-2,-10,2020-10-19 09:58:22.944
7,-1,4,-6,1,-3,0,6,2020-10-19 09:58:22.960
1,5,-4,9,21,0,-2,-3,2020-10-19 09:58:22.977
-5,-2,3,3,18,1,0,-5,2020-10-19 09:58:22.993
2,2,2,-7,-16,-1,-2,-2,2020-10-19 09:58:23.011
-2,-2,5,3,-6,0,-3,-3,2020-10-19 09:58:23.028
-4,-11,-9,1,-7,-6,-4,-4,2020-10-19 09:58:23.044
6,10,-5,0,13,-7,-1,2,2020-10-19 09:58:23.061
0,-3,2,5,11,-2,0,0,2020-10-19 09:58:23.078
0,-2,-5,-10,-11,-6,1,1,2020-10-19 09:58:23.094
7,-7,-10,-2,-15,-3,-2,-3,2020-10-19 09:58:23.112
-8,-23,-42,-3,11,4,2,-3,2020-10-19 09:58:23.129
1,2,9,-4,-6,1,1,0,2020-10-19 09:58:23.144
-4,-5,-2,-5,-8,-8,-4,-3,2020-10-19 09:58:23.162
4,12,1,-6,-8,3,3,2,2020-10-19 09:58:23.178
0,-6,-6,5,6,2,0,-1,2020-10-19 09:58:23.206
-5,-7,-17,-3,-2,-3,-3,-3,2020-10-19 09:58:23.264
-3,-16,-24,7,17,3,-2,-2,2020-10-19 09:58:23.308
-1,2,5,2,-9,-4,-1,-2,2020-10-19 09:58:23.352
-2,-2,8,-1,10,-4,-3,-2,2020-10-19 09:58:23.392
0,-8,-11,-1,-5,4,4,0,2020-10-19 09:58:23.432
0,1,9,-9,-19,-2,-1,1,2020-10-19 09:58:23.472
-2,2,6,-3,-6,-1,-1,-2,2020-10-19 09:58:23.511
0,0,-1,1,4,2,3,2,2020-10-19 09:58:23.555
0,-4,-8,5,23,8,3,0,2020-10-19 09:58:23.594
-1,-4,0,3,0,-5,-1,2,2020-10-19 09:58:23.631
-3,1,2,-3,-4,-1,-2,-4,2020-10-19 09:58:23.668
-1,-3,-5,-5,-2,-5,-7,-4,2020-10-19 09:58:23.709
3,2,2,2,6,1,6,5,2020-10-19 09:58:23.746
3,5,3,5,15,10,13,4,2020-10-19 09:58:23.783
3,-1,-1,6,4,12,3,4,2020-10-19 09:58:23.823
1,-1,0,-4,3,30,20,3,2020-10-19 09:58:23.861
3,3,8,6,-17,5,7,5,2020-10-19 09:58:23.899
-4,0,-1,0,-15,-25,-9,-4,2020-10-19 09:58:23.935
-1,-1,4,4,9,18,11,2,2020-10-19 09:58:23.974
-1,2,-10,-7,-1,-8,-5,0,2020-10-19 09:58:24.015
1,-7,-28,-18,-6,-2,4,5,2020-10-19 09:58:24.052
3,9,22,20,-12,12,17,4,2020-10-19 09:58:24.091
-3,-8,-2,-22,-4,-14,-6,-3,2020-10-19 09:58:24.130
-1,23,102,10,0,23,-9,-6,2020-10-19 09:58:24.170
-23,-46,-124,-33,-9,-95,-32,-16,2020-10-19 09:58:24.214
25,29,51,37,-16,-9,-40,4,2020-10-19 09:58:24.254
-29,-39,-20,-59,-14,-40,5,-32,2020-10-19 09:58:24.294
-15,-15,-38,-10,-1,-78,-11,-30,2020-10-19 09:58:24.335
36,-12,-34,-16,33,-43,-38,45,2020-10-19 09:58:24.374
97,34,27,38,6,-32,16,40,2020-10-19 09:58:24.411
-22,-3,-73,17,5,-112,15,13,2020-10-19 09:58:24.448
-61,14,17,27,-27,-128,-26,-14,2020-10-19 09:58:24.489
-26,-29,-7,45,5,-68,29,-57,2020-10-19 09:58:24.529
2,-58,44,-10,-72,-64,38,8,2020-10-19 09:58:24.567
40,52,99,21,69,44,-72,39,2020-10-19 09:58:24.610
12,51,59,-37,-28,21,42,27,2020-10-19 09:58:24.648
-67,-75,-3,18,51,-13,-114,-7,2020-10-19 09:58:24.688
-44,50,-85,-45,-33,49,19,-25,2020-10-19 09:58:24.735
70,38,35,-6,20,-19,-12,45,2020-10-19 09:58:24.777
-33,32,10,18,28,-9,13,7,2020-10-19 09:58:24.814
32,24,-50,-74,54,25,-51,30,2020-10-19 09:58:24.851
-7,-23,-67,-36,37,-59,-71,23,2020-10-19 09:58:24.887
-54,-47,-15,81,-48,-98,27,-4,2020-10-19 09:58:24.926
-8,-12,40,-115,16,77,11,35,2020-10-19 09:58:24.965
7,59,68,-61,27,-58,-128,44,2020-10-19 09:58:25.006
-53,-23,28,-27,-7,-49,-88,-34,2020-10-19 09:58:25.043
-8,-23,-10,49,19,-22,-26,-6,2020-10-19 09:58:25.083
-60,-61,19,108,22,-27,119,-2,2020-10-19 09:58:25.123
4,-11,8,33,-36,11,-14,-10,2020-10-19 09:58:25.160
-16,-3,-77,-14,16,81,101,19,2020-10-19 09:58:25.195
30,43,38,-14,-23,80,-83,3,2020-10-19 09:58:25.234
-13,-45,-25,-34,12,-62,-4,15,2020-10-19 09:58:25.273
-3,4,7,10,-7,-41,-32,-12,2020-10-19 09:58:25.310
-1,-10,23,-2,11,26,-23,-14,2020-10-19 09:58:25.349
-1,-37,-22,-4,45,-21,-41,-18,2020-10-19 09:58:25.387
0,17,27,29,24,-6,-3,-7,2020-10-19 09:58:25.427
-6,-4,-28,-9,-36,-29,-6,-16,2020-10-19 09:58:25.466
2,6,8,44,111,20,9,3,2020-10-19 09:58:25.502
-1,-5,-14,-90,-27,-9,-6,1,2020-10-19 09:58:25.540
-1,-5,-1,2,-1,-4,-13,-5,2020-10-19 09:58:25.581
3,3,5,13,-3,-7,6,4,2020-10-19 09:58:25.621
-4,-20,-7,-4,-69,-26,-7,-2,2020-10-19 09:58:25.661
-2,3,-3,2,-13,-4,-9,-4,2020-10-19 09:58:25.700
5,1,2,14,39,12,2,2,2020-10-19 09:58:25.744
5,-37,6,-3,16,-1,5,10,2020-10-19 09:58:25.781
1,4,21,-15,14,-1,-7,-8,2020-10-19 09:58:25.819
7,23,1,-14,18,2,1,5,2020-10-19 09:58:25.858
-5,-13,-9,-28,15,3,-3,5,2020-10-19 09:58:25.896
6,2,-3,-4,1,-3,5,6,2020-10-19 09:58:25.935
-6,-5,-13,-6,-8,-21,-12,-6,2020-10-19 09:58:25.975
-6,0,2,-1,5,-6,-13,-8,2020-10-19 09:58:26.016
-3,-4,-9,39,4,3,-6,3,2020-10-19 09:58:26.056
3,-6,-8,-13,-4,-1,1,0,2020-10-19 09:58:26.096
-7,-20,-4,15,10,-4,-2,-3,2020-10-19 09:58:26.134
-1,3,1,2,-4,-6,-2,-1,2020-10-19 09:58:26.170
-4,-1,-1,16,15,1,-4,-1,2020-10-19 09:58:26.211
1,0,0,-10,-8,-3,-2,0,2020-10-19 09:58:26.251
1,3,5,14,9,-2,0,0,2020-10-19 09:58:26.290
0,1,-1,-1,-3,-2,-2,-1,2020-10-19 09:58:26.327
-1,-2,-3,-19,-18,2,0,-2,2020-10-19 09:58:26.368
-2,1,-2,3,1,-9,-6,-5,2020-10-19 09:58:26.406
-1,-1,-2,-14,-9,-11,-3,0,2020-10-19 09:58:26.442
0,-2,-1,4,-1,4,1,1,2020-10-19 09:58:26.480
7,7,2,2,6,12,6,2,2020-10-19 09:58:26.517
-3,-2,-2,-4,-6,-6,-3,-2,2020-10-19 09:58:26.558
-1,-1,-5,-17,-8,-3,-2,-3,2020-10-19 09:58:26.597
-2,0,0,-8,-2,0,2,1,2020-10-19 09:58:26.635
-1,-2,-2,-8,-3,1,0,-2,2020-10-19 09:58:26.673
-4,-2,-4,-11,-8,0,0,-2,2020-10-19 09:58:26.712
0,-1,0,-5,1,1,1,0,2020-10-19 09:58:26.752
-9,-4,-1,-1,-3,-4,-3,-3,2020-10-19 09:58:26.792
0,1,0,-1,2,1,-1,-1,2020-10-19 09:58:26.831
2,0,-1,-4,-2,0,-1,1,2020-10-19 09:58:26.869
-6,-3,2,-4,-4,-4,-4,-4,2020-10-19 09:58:26.907
-14,-4,-3,-7,0,1,-1,-2,2020-10-19 09:58:26.944
3,2,0,-1,-2,1,1,-2,2020-10-19 09:58:26.983
0,-2,-1,0,4,0,-1,-1,2020-10-19 09:58:27.026
2,-1,-2,0,-2,0,0,1,2020-10-19 09:58:27.063
-2,-3,-1,-9,-5,2,3,2,2020-10-19 09:58:27.099
-2,0,-1,2,2,-2,1,1,2020-10-19 09:58:27.139
-6,-2,-2,2,2,0,-1,-2,2020-10-19 09:58:27.178
-8,-5,1,0,-1,-1,-3,-3,2020-10-19 09:58:27.221
2,3,-1,-2,-1,-3,-2,-3,2020-10-19 09:58:27.259
2,-3,2,-4,-6,-4,-3,-1,2020-10-19 09:58:27.295
2,-1,1,1,3,-1,-1,0,2020-10-19 09:58:27.334
8,5,7,-7,3,-1,-1,5,2020-10-19 09:58:27.372
2,3,-2,-3,-1,-1,-1,0,2020-10-19 09:58:27.411
0,-10,-10,-8,-3,-2,-1,-1,2020-10-19 09:58:27.450
-1,-12,-4,2,1,0,-1,-1,2020-10-19 09:58:27.488
-3,31,15,8,7,3,3,0,2020-10-19 09:58:27.525
-3,-4,-1,1,0,1,0,-1,2020-10-19 09:58:27.567
-3,-10,-3,-1,1,0,0,-1,2020-10-19 09:58:27.606
1,5,3,1,1,0,3,1,2020-10-19 09:58:27.645
0,-5,-1,3,0,0,0,1,2020-10-19 09:58:27.687
-7,-19,-2,-7,-3,-3,-3,-2,2020-10-19 09:58:27.725
-1,-7,-3,-3,-1,1,-1,-2,2020-10-19 09:58:27.773
-6,-7,-7,-11,8,2,-2,-2,2020-10-19 09:58:27.816
-1,1,7,2,2,-1,-1,-1,2020-10-19 09:58:27.855
-1,-1,3,0,9,2,0,-1,2020-10-19 09:58:27.892
-4,-24,1,6,6,-1,-1,-2,2020-10-19 09:58:27.931
-3,4,-1,-12,-5,-2,-3,-3,2020-10-19 09:58:27.973
0,-10,-5,4,1,-1,2,-2,2020-10-19 09:58:28.011
-2,-5,-4,-2,-3,-1,-3,-1,2020-10-19 09:58:28.049
0,-1,-1,-1,4,-1,-1,-1,2020-10-19 09:58:28.089
-2,0,-2,-16,-5,-1,0,0,2020-10-19 09:58:28.128
-1,-3,-2,-4,-8,-2,-1,-1,2020-10-19 09:58:28.166
-2,-3,-1,-5,-4,-3,-3,-2,2020-10-19 09:58:28.205
-1,-1,-4,-4,-9,1,-1,-3,2020-10-19 09:58:28.243
-2,-2,2,31,17,3,1,1,2020-10-19 09:58:28.281
-1,0,-1,7,5,1,1,-1,2020-10-19 09:58:28.317
0,-2,-1,7,8,4,1,-1,2020-10-19 09:58:28.354
0,-4,-3,-16,-5,1,0,-1,2020-10-19 09:58:28.392
0,4,1,-5,9,1,1,1,2020-10-19 09:58:28.433
0,2,2,10,10,2,-1,-1,2020-10-19 09:58:28.470
-2,-2,-1,2,0,-2,-2,-2,2020-10-19 09:58:28.509
-1,2,2,9,-1,-1,0,0,2020-10-19 09:58:28.548
-1,0,1,0,2,-2,0,-1,2020-10-19 09:58:28.591
0,-1,-1,6,1,-2,-1,1,2020-10-19 09:58:28.632
0,-1,1,-1,-2,-2,0,1,2020-10-19 09:58:28.669
-1,-2,-1,-6,0,-1,0,2,2020-10-19 09:58:28.712
0,0,-1,4,0,-1,-1,-1,2020-10-19 09:58:28.757
3,4,-1,-4,-2,0,-1,0,2020-10-19 09:58:28.799
-2,-1,-2,-3,-3,-3,-1,0,2020-10-19 09:58:28.840
2,-1,0,-2,-5,-1,0,0,2020-10-19 09:58:28.880
-1,-2,-2,-5,0,1,-1,-2,2020-10-19 09:58:28.920
-4,-1,-2,-2,1,-2,-1,-2,2020-10-19 09:58:28.960
-3,-2,0,3,2,0,0,-2,2020-10-19 09:58:28.999
-2,-1,-1,7,4,-1,0,-1,2020-10-19 09:58:29.037
-5,-2,-1,4,1,0,-1,-1,2020-10-19 09:58:29.076
-4,-2,-1,8,1,-1,-1,-2,2020-10-19 09:58:29.115
-7,-5,-3,5,2,-1,-1,-3,2020-10-19 09:58:29.155
1,-2,1,-5,4,-7,-3,-2,2020-10-19 09:58:29.196
1,0,-11,4,54,14,4,1,2020-10-19 09:58:29.234
0,1,-1,1,-12,-1,-1,1,2020-10-19 09:58:29.274
0,-2,-5,0,-2,-4,-3,-1,2020-10-19 09:58:29.313
2,1,0,2,12,9,-3,-1,2020-10-19 09:58:29.354
12,4,3,4,9,18,25,15,2020-10-19 09:58:29.399
8,2,-2,-3,-3,-26,-22,7,2020-10-19 09:58:29.438
-7,1,1,3,1,1,27,-5,2020-10-19 09:58:29.482
-2,-1,-3,2,1,5,0,4,2020-10-19 09:58:29.525
-9,-1,-3,-6,-4,-4,-6,-4,2020-10-19 09:58:29.563
-2,-1,1,21,1,0,-1,-3,2020-10-19 09:58:29.601
-10,7,17,49,30,7,4,-6,2020-10-19 09:58:29.640
-5,-11,-22,18,-14,-10,-5,-7,2020-10-19 09:58:29.678
16,10,11,38,89,97,52,25,2020-10-19 09:58:29.717
12,11,15,34,89,94,59,21,2020-10-19 09:58:29.755
11,9,14,36,60,29,30,13,2020-10-19 09:58:29.795
5,1,-8,-2,-43,6,7,5,2020-10-19 09:58:29.833
-6,22,7,-21,-113,-49,-29,-17,2020-10-19 09:58:29.874
2,4,2,-1,-37,17,9,7,2020-10-19 09:58:29.912
0,2,-1,13,20,-3,2,0,2020-10-19 09:58:29.951
-4,-13,-1,11,24,7,4,0,2020-10-19 09:58:29.994
-2,-7,8,0,-15,8,-1,0,2020-10-19 09:58:30.034
7,5,3,19,88,35,5,4,2020-10-19 09:58:30.073
-1,-6,-20,-19,-50,-3,-4,-1,2020-10-19 09:58:30.112
-6,-8,-9,-33,-2,-9,-12,-9,2020-10-19 09:58:30.151
45,18,19,26,19,36,-45,35,2020-10-19 09:58:30.193
18,-8,-8,-7,-25,-81,-109,57,2020-10-19 09:58:30.233
19,10,13,21,32,113,99,33,2020-10-19 09:58:30.273
-9,4,7,-8,-40,3,26,-18,2020-10-19 09:58:30.312
-15,-4,4,1,19,-17,-13,-20,2020-10-19 09:58:30.352
-6,13,15,7,15,6,7,0,2020-10-19 09:58:30.391
-6,-7,-3,4,-17,-17,-36,-17,2020-10-19 09:58:30.431
-8,2,3,11,-15,-29,-19,-18,2020-10-19 09:58:30.471
-7,-3,-7,-2,19,13,4,16,2020-10-19 09:58:30.511
-34,-18,-14,-15,10,-49,-5,-36,2020-10-19 09:58:30.551
4,2,2,-13,-58,-33,-7,-12,2020-10-19 09:58:30.592
-10,-7,-3,6,-19,-18,-12,-22,2020-10-19 09:58:30.630
-4,-56,-28,-14,-22,-46,-3,-2,2020-10-19 09:58:30.672
2,-26,31,79,52,14,16,2,2020-10-19 09:58:30.709
-12,-34,-18,-4,-11,-27,-9,-4,2020-10-19 09:58:30.747
-13,13,29,-1,3,-3,-24,-16,2020-10-19 09:58:30.788
11,10,7,-55,-18,-26,22,20,2020-10-19 09:58:30.830
-7,-4,7,12,3,-19,-20,-5,2020-10-19 09:58:30.864
34,7,10,-1,0,-7,-7,23,2020-10-19 09:58:30.900
-10,2,4,2,10,3,-2,-6,2020-10-19 09:58:30.938
10,-2,-3,-5,-17,7,-4,3,2020-10-19 09:58:30.974
-7,-2,-1,-5,-36,-18,-7,-6,2020-10-19 09:58:31.011
32,4,-17,-16,-25,-8,-2,11,2020-10-19 09:58:31.048
3,-3,30,72,-17,-10,-8,0,2020-10-19 09:58:31.083
27,20,0,-6,-7,-6,-6,9,2020-10-19 09:58:31.123
3,9,-1,-17,-6,-7,-6,0,2020-10-19 09:58:31.161
0,3,-12,-12,-1,1,1,2,2020-10-19 09:58:31.196
-51,-21,-11,-9,-5,-8,-8,-15,2020-10-19 09:58:31.235
4,-1,2,-2,0,-1,-2,-1,2020-10-19 09:58:31.274
18,16,21,0,-5,-4,-3,5,2020-10-19 09:58:31.310
1,9,-4,-2,0,3,-1,0,2020-10-19 09:58:31.349
3,-16,-9,-2,0,3,-1,-1,2020-10-19 09:58:31.388
15,9,-1,1,3,8,5,6,2020-10-19 09:58:31.427
-7,-6,-14,0,-1,0,-4,0,2020-10-19 09:58:31.464
10,-4,8,-1,-2,-8,-3,1,2020-10-19 09:58:31.502
3,-5,-3,-3,0,-4,-2,-1,2020-10-19 09:58:31.540
0,9,8,1,1,3,-1,2,2020-10-19 09:58:31.579
-1,-5,-5,-5,-6,4,3,-3,2020-10-19 09:58:31.618
1,3,3,20,-30,-39,-16,-6,2020-10-19 09:58:31.661
-10,-11,-6,-8,9,53,23,-5,2020-10-19 09:58:31.707
4,4,2,15,1,-44,5,7,2020-10-19 09:58:31.750
3,2,-1,-14,9,2,-8,2,2020-10-19 09:58:31.787
4,-1,-3,10,3,20,10,4,2020-10-19 09:58:31.830
1,27,25,24,31,13,-2,0,2020-10-19 09:58:31.870
-16,-51,-23,-22,6,-15,-13,-10,2020-10-19 09:58:31.915
5,32,9,15,-9,2,6,6,2020-10-19 09:58:31.951
4,12,7,-19,-70,-11,-3,3,2020-10-19 09:58:31.991
2,11,9,19,31,17,7,3,2020-10-19 09:58:32.025
3,1,3,0,5,4,1,2,2020-10-19 09:58:32.063
-1,2,-1,12,35,10,5,1,2020-10-19 09:58:32.101
1,-7,2,8,40,7,5,2,2020-10-19 09:58:32.141
0,-4,-3,7,4,-4,-8,-4,2020-10-19 09:58:32.181
-3,0,-5,50,1,1,0,1,2020-10-19 09:58:32.218
0,7,1,-38,12,32,-2,-7,2020-10-19 09:58:32.255
-4,-14,-3,-10,-26,-13,-3,-1,2020-10-19 09:58:32.295
-1,-6,-6,-3,-8,-7,-2,1,2020-10-19 09:58:32.330
5,10,8,3,3,-1,-2,0,2020-10-19 09:58:32.367
-1,-3,6,16,12,3,0,2,2020-10-19 09:58:32.403
2,0,4,14,22,2,-1,2,2020-10-19 09:58:32.444
-4,-6,5,11,50,7,1,0,2020-10-19 09:58:32.480
-1,0,2,-4,-9,-5,1,1,2020-10-19 09:58:32.517
0,0,-2,-6,-12,-2,-2,-2,2020-10-19 09:58:32.557
3,-1,0,3,5,3,2,1,2020-10-19 09:58:32.597
0,-1,-5,6,12,2,1,-1,2020-10-19 09:58:32.636
3,-8,-14,-6,-3,4,1,1,2020-10-19 09:58:32.675
-1,1,2,-2,17,0,0,-2,2020-10-19 09:58:32.710
1,-1,6,20,8,7,5,4,2020-10-19 09:58:32.749
2,0,3,7,30,6,2,4,2020-10-19 09:58:32.786
0,0,-4,-2,-52,-10,-9,-5,2020-10-19 09:58:32.825
-60,-71,-27,-6,51,18,-20,-22,2020-10-19 09:58:32.861
127,127,51,19,-3,13,6,39,2020-10-19 09:58:32.898
37,39,-19,-14,12,4,12,14,2020-10-19 09:58:32.934
-44,-89,-47,-29,-18,-2,-20,-78,2020-10-19 09:58:32.974
21,-13,-41,-60,-65,-11,-5,4,2020-10-19 09:58:33.010
-53,-29,14,-5,-24,-13,-13,-22,2020-10-19 09:58:33.050
27,68,15,-16,-7,-19,-15,-3,2020-10-19 09:58:33.085
-89,-88,-2,7,8,5,-2,-14,2020-10-19 09:58:33.124
1,9,5,-2,-14,2,1,0,2020-10-19 09:58:33.160
-17,-7,-5,4,-2,-5,-4,-2,2020-10-19 09:58:33.200
10,11,2,12,6,2,-1,-1,2020-10-19 09:58:33.237
-19,-1,-4,-3,-8,-3,-1,-2,2020-10-19 09:58:33.278
14,-8,-3,-6,2,-1,-2,3,2020-10-19 09:58:33.314
-2,-12,-1,23,16,3,-5,-4,2020-10-19 09:58:33.352
-11,-25,2,11,3,-2,-6,-9,2020-10-19 09:58:33.387
-15,-27,-7,-11,-4,-22,23,-6,2020-10-19 09:58:33.428
30,20,13,20,44,127,107,76,2020-10-19 09:58:33.463
-73,-36,-23,-29,-40,-58,-43,-80,2020-10-19 09:58:33.503
13,13,6,-1,0,-16,-30,-2,2020-10-19 09:58:33.542
-22,6,1,-19,-5,29,23,-2,2020-10-19 09:58:33.582
62,11,13,20,0,-2,-9,22,2020-10-19 09:58:33.618
-1,-56,-5,-4,7,4,-1,13,2020-10-19 09:58:33.658
1,30,1,0,10,9,3,0,2020-10-19 09:58:33.695
-1,10,-18,22,6,-1,-1,-1,2020-10-19 09:58:33.731
2,10,14,-2,10,2,1,3,2020-10-19 09:58:33.769
2,10,-4,58,12,-1,-2,2,2020-10-19 09:58:33.809
-3,-6,4,13,11,6,3,0,2020-10-19 09:58:33.846
43,51,3,-10,52,6,-1,9,2020-10-19 09:58:33.883
-58,-44,-12,11,-36,-37,-7,-20,2020-10-19 09:58:33.920
20,8,-13,-12,-31,-16,-11,-1,2020-10-19 09:58:33.959
16,-19,-13,-4,-5,3,-1,-10,2020-10-19 09:58:34.000
-80,-98,-6,19,3,-2,-3,7,2020-10-19 09:58:34.036
4,-5,-17,-24,14,12,1,1,2020-10-19 09:58:34.073
16,-14,-2,59,7,23,15,8,2020-10-19 09:58:34.111
8,20,13,42,0,42,9,1,2020-10-19 09:58:34.147
23,11,0,-8,-17,-18,-6,0,2020-10-19 09:58:34.184
9,4,1,19,13,3,6,5,2020-10-19 09:58:34.221
-9,-1,-2,-13,3,-16,-16,-8,2020-10-19 09:58:34.260
-3,0,-4,-30,-61,-20,2,1,2020-10-19 09:58:34.298
1,5,10,22,38,8,-7,-3,2020-10-19 09:58:34.334
0,-2,-4,-30,-7,-12,-14,-8,2020-10-19 09:58:34.374
14,24,-16,80,-14,-14,-12,-4,2020-10-19 09:58:34.413
3,-6,-15,10,5,-11,-7,3,2020-10-19 09:58:34.447
-26,-24,-16,-5,-26,-18,-10,-13,2020-10-19 09:58:34.485
-13,-9,-6,-18,-4,4,5,-1,2020-10-19 09:58:34.522
8,7,10,48,-3,14,9,2,2020-10-19 09:58:34.563
-7,-4,-2,-16,-7,-9,-7,-5,2020-10-19 09:58:34.599
-1,14,0,-1,-3,-2,1,-1,2020-10-19 09:58:34.639
0,-3,-1,16,1,-6,-4,-3,2020-10-19 09:58:34.677
4,-1,-21,-11,-2,2,2,4,2020-10-19 09:58:34.715
-4,-6,-10,2,-3,-3,-3,-5,2020-10-19 09:58:34.753
2,1,-2,-3,-7,1,2,1,2020-10-19 09:58:34.794
-2,-6,-2,-15,-11,-1,-2,1,2020-10-19 09:58:34.833
0,-2,-3,-2,4,3,1,2,2020-10-19 09:58:34.878
1,3,3,4,10,-1,-3,0,2020-10-19 09:58:34.918
2,0,1,-6,-6,3,2,1,2020-10-19 09:58:34.957
0,0,0,6,2,1,5,2,2020-10-19 09:58:34.998
-3,-3,-1,-5,-2,-1,-4,-5,2020-10-19 09:58:35.039
0,0,0,-2,-2,-1,-4,-1,2020-10-19 09:58:35.081
0,1,4,-3,0,0,-5,-4,2020-10-19 09:58:35.123
3,-2,-5,-2,-1,-5,-2,1,2020-10-19 09:58:35.165
-3,-3,-66,-13,-1,-1,-6,-8,2020-10-19 09:58:35.206
-1,44,67,81,5,15,3,-9,2020-10-19 09:58:35.249
84,-24,-68,-40,-66,-3,10,-7,2020-10-19 09:58:35.290
-57,-75,-50,44,-28,44,31,-5,2020-10-19 09:58:35.329
-4,2,113,19,11,8,-6,-6,2020-10-19 09:58:35.369
100,99,68,-62,4,18,16,21,2020-10-19 09:58:35.408
-12,-10,-97,-44,-4,1,-8,-9,2020-10-19 09:58:35.448
-5,-29,10,22,-2,14,1,-2,2020-10-19 09:58:35.484
5,-8,-83,-54,-34,-3,-1,-6,2020-10-19 09:58:35.521
41,53,115,-63,-9,7,4,4,2020-10-19 09:58:35.558
-35,-22,70,-44,-16,-15,-5,-6,2020-10-19 09:58:35.598
-4,-28,-4,41,-28,-37,-1,-3,2020-10-19 09:58:35.634
27,-7,-87,17,7,33,10,3,2020-10-19 09:58:35.671
29,23,25,-5,3,-5,3,6,2020-10-19 09:58:35.710
79,35,12,1,2,-1,-12,-4,2020-10-19 09:58:35.749
-7,17,23,-3,2,1,-1,-3,2020-10-19 09:58:35.784
7,8,10,-9,5,-2,-3,1,2020-10-19 09:58:35.822
-35,-65,-116,-24,-8,31,10,-5,2020-10-19 09:58:35.858
29,19,27,18,5,-11,3,7,2020-10-19 09:58:35.896
-42,-7,15,-4,5,-5,7,1,2020-10-19 09:58:35.931
-21,-15,-54,-8,-5,1,1,-1,2020-10-19 09:58:35.967
16,5,20,-9,0,-19,-7,-1,2020-10-19 09:58:36.004
-30,-24,-5,-13,-12,-23,-7,-5,2020-10-19 09:58:36.043
13,19,39,18,12,3,2,5,2020-10-19 09:58:36.079
28,28,1,5,10,0,7,4,2020-10-19 09:58:36.116
12,-22,-49,43,2,-6,-9,-3,2020-10-19 09:58:36.153
9,1,30,16,6,8,-2,1,2020-10-19 09:58:36.193
3,1,-39,-11,3,22,4,3,2020-10-19 09:58:36.232
-18,0,90,-6,-11,-9,-9,-8,2020-10-19 09:58:36.273
10,29,26,1,2,-12,4,5,2020-10-19 09:58:36.312
21,10,-36,-5,3,21,-1,8,2020-10-19 09:58:36.351
-8,-32,-70,-22,11,10,2,1,2020-10-19 09:58:36.387
-22,-36,-42,-1,-15,-16,-2,-9,2020-10-19 09:58:36.426
24,33,66,1,3,0,-11,-4,2020-10-19 09:58:36.463
-9,-20,-27,-28,-8,0,-7,0,2020-10-19 09:58:36.501
13,2,-128,5,6,20,10,3,2020-10-19 09:58:36.537
20,16,-1,61,-3,-3,6,9,2020-10-19 09:58:36.575
-18,-8,-53,33,-10,-31,-4,-5,2020-10-19 09:58:36.614
-18,-24,-28,0,3,4,1,-3,2020-10-19 09:58:36.652
-5,-5,17,-32,-8,-4,-9,0,2020-10-19 09:58:36.687
-28,-8,9,-17,-6,-24,-6,-8,2020-10-19 09:58:36.727
-18,-15,59,10,6,17,2,3,2020-10-19 09:58:36.763
-32,-19,63,30,5,-1,-2,-7,2020-10-19 09:58:36.802
-13,1,-14,19,0,15,7,5,2020-10-19 09:58:36.840
-35,-7,0,-18,-10,-7,9,-2,2020-10-19 09:58:36.879
44,35,70,14,5,4,-5,-2,2020-10-19 09:58:36.915
-1,-2,31,9,-9,21,15,6,2020-10-19 09:58:36.953
-16,4,-28,43,-18,-51,-8,-3,2020-10-19 09:58:36.989
-2,15,118,56,19,-6,-5,6,2020-10-19 09:58:37.029
6,8,53,6,-16,-16,-1,-1,2020-10-19 09:58:37.066
-14,-14,-37,-20,-4,7,2,-6,2020-10-19 09:58:37.103
6,0,-4,4,5,6,-5,-5,2020-10-19 09:58:37.138
-12,-18,12,12,12,-8,-6,-5,2020-10-19 09:58:37.179
30,18,-5,56,19,10,13,13,2020-10-19 09:58:37.220
-20,4,69,8,-3,-9,-10,-12,2020-10-19 09:58:37.259
-38,-12,31,31,16,31,1,-5,2020-10-19 09:58:37.298
2,-25,20,-18,-13,-4,10,4,2020-10-19 09:58:37.340
-31,-47,-119,-18,1,22,1,-3,2020-10-19 09:58:37.380
3,0,-17,-9,2,-20,-15,-4,2020-10-19 09:58:37.418
-53,-49,-62,2,7,-10,-7,-13,2020-10-19 09:58:37.455
-29,-45,57,37,-6,-17,-8,-9,2020-10-19 09:58:37.498
-9,-27,15,-2,-19,-25,-17,-21,2020-10-19 09:58:37.536
-1,-63,-21,-23,17,9,-11,-18,2020-10-19 09:58:37.576
6,47,127,16,4,54,24,18,2020-10-19 09:58:37.617
27,27,-104,-36,-3,1,-7,4,2020-10-19 09:58:37.655
-16,-21,30,17,-34,-28,10,-2,2020-10-19 09:58:37.690
-10,-22,25,0,-16,-13,4,-1,2020-10-19 09:58:37.731
-12,-16,-50,-95,-17,-47,-23,-6,2020-10-19 09:58:37.767
5,21,14,-6,53,21,4,-1,2020-10-19 09:58:37.805
2,1,-6,10,17,18,1,-6,2020-10-19 09:58:37.841
8,16,17,33,48,49,15,4,2020-10-19 09:58:37.880
-8,-7,6,-56,-27,-14,-9,-3,2020-10-19 09:58:37.917
10,51,-10,35,45,-18,-4,0,2020-10-19 09:58:37.953
8,22,8,44,65,10,7,8,2020-10-19 09:58:37.990
5,-4,-3,19,29,1,5,6,2020-10-19 09:58:38.031
2,4,-19,-81,-37,-13,-5,-2,2020-10-19 09:58:38.066
5,8,23,51,72,12,7,3,2020-10-19 09:58:38.105
0,-2,3,16,26,-6,0,-3,2020-10-19 09:58:38.143
-1,0,4,3,-12,5,2,-1,2020-10-19 09:58:38.182
-6,-6,-13,-19,-7,-16,-8,-7,2020-10-19 09:58:38.219
6,6,13,30,31,16,11,9,2020-10-19 09:58:38.255
1,-2,-22,-29,3,-3,0,1,2020-10-19 09:58:38.292
-1,-3,5,-1,7,2,-17,-4,2020-10-19 09:58:38.331
-5,-14,29,-10,-16,5,7,0,2020-10-19 09:58:38.365
-99,-86,-112,-35,-59,-59,-10,-32,2020-10-19 09:58:38.402
-33,-64,-34,-33,20,51,26,7,2020-10-19 09:58:38.438
-52,-22,1,-7,22,18,-17,-21,2020-10-19 09:58:38.475
-33,-17,-31,-15,-75,6,-2,-12,2020-10-19 09:58:38.514
32,15,-10,1,24,44,25,13,2020-10-19 09:58:38.553
24,0,-77,5,-7,-33,-10,5,2020-10-19 09:58:38.589
-19,-19,-70,25,-11,-17,-5,-16,2020-10-19 09:58:38.628
45,64,74,-19,-46,103,18,-1,2020-10-19 09:58:38.665
3,-9,-75,-7,16,41,19,3,2020-10-19 09:58:38.703
-58,-22,-8,17,21,-108,-33,-17,2020-10-19 09:58:38.739
-11,-39,-8,29,40,14,1,-1,2020-10-19 09:58:38.779
0,14,25,2,-8,-3,-3,-7,2020-10-19 09:58:38.818
-1,16,-78,4,-38,59,29,2,2020-10-19 09:58:38.854
1,-2,27,-25,-52,-33,-28,-34,2020-10-19 09:58:38.892
-46,-57,-44,23,29,-8,2,5,2020-10-19 09:58:38.931
-7,-5,-28,-30,-19,3,14,35,2020-10-19 09:58:38.968
1,-1,-17,-1,26,-6,-11,-16,2020-10-19 09:58:39.011
-1,10,4,8,9,-18,-10,-10,2020-10-19 09:58:39.051
2,-3,-4,-7,-7,-11,-6,-2,2020-10-19 09:58:39.087
-2,-4,-2,1,9,9,3,2,2020-10-19 09:58:39.124
4,2,4,3,4,6,7,4,2020-10-19 09:58:39.164
1,1,-2,-11,-9,1,1,1,2020-10-19 09:58:39.199
-5,-2,-2,5,-2,-6,-6,-11,2020-10-19 09:58:39.237
-1,-8,-18,-1,-2,0,1,1,2020-10-19 09:58:39.272
-2,-4,-3,-10,0,-4,-2,2,2020-10-19 09:58:39.312
-6,-4,-1,-1,4,1,2,-9,2020-10-19 09:58:39.351
6,3,0,4,2,1,1,2,2020-10-19 09:58:39.388
-2,-1,1,2,0,-7,-3,-2,2020-10-19 09:58:39.424
2,-2,1,2,10,3,-1,0,2020-10-19 09:58:39.466
-1,0,-1,-1,-5,-5,-3,-1,2020-10-19 09:58:39.503
0,2,4,3,2,4,2,1,2020-10-19 09:58:39.538
-1,-5,-5,-10,-17,-8,-3,0,2020-10-19 09:58:39.574
-6,-20,-48,-27,-17,0,-1,0,2020-10-19 09:58:39.618
-44,3,-21,-26,-7,-20,-2,-3,2020-10-19 09:58:39.663
-40,-59,-75,10,34,3,-1,-13,2020-10-19 09:58:39.700
-34,-9,13,-8,5,15,0,-7,2020-10-19 09:58:39.736
47,30,80,-11,-23,47,24,12,2020-10-19 09:58:39.779
20,27,-6,10,0,-2,18,13,2020-10-19 09:58:39.820
12,10,71,-8,-22,-11,-5,-3,2020-10-19 09:58:39.858
20,30,14,6,11,-6,6,14,2020-10-19 09:58:39.898
-56,-53,-82,-14,53,-44,-19,-14,2020-10-19 09:58:39.937
33,58,44,-13,-13,15,2,10,2020-10-19 09:58:39.974
-4,-13,-11,-13,-53,17,3,-5,2020-10-19 09:58:40.014
55,25,-21,-1,9,-1,5,13,2020-10-19 09:58:40.049
13,17,-75,0,9,6,2,7,2020-10-19 09:58:40.087
11,-9,-12,-8,13,5,7,19,2020-10-19 09:58:40.123
-18,-11,2,-3,17,3,-3,-5,2020-10-19 09:58:40.162
0,4,-1,-11,-35,-3,-3,-9,2020-10-19 09:58:40.199
2,-3,-2,-1,0,0,-2,0,2020-10-19 09:58:40.237
-3,13,9,1,1,2,0,0,2020-10-19 09:58:40.272
-6,-6,-4,8,12,-3,-2,-7,2020-10-19 09:58:40.312
-3,-3,-6,8,-8,7,2,-2,2020-10-19 09:58:40.350
1,0,-1,2,-7,-2,-2,0,2020-10-19 09:58:40.387
-1,-3,-3,-1,-1,-3,-3,-3,2020-10-19 09:58:40.424
-1,1,4,-4,1,0,-2,-1,2020-10-19 09:58:40.462
1,-3,1,0,7,2,1,2,2020-10-19 09:58:40.500
2,2,1,4,5,1,0,1,2020-10-19 09:58:40.539
0,-2,-1,-2,1,3,0,-1,2020-10-19 09:58:40.575
-2,-2,-2,-2,1,-1,-2,-3,2020-10-19 09:58:40.616
1,1,0,3,-1,2,3,3,2020-10-19 09:58:40.653
-4,-4,-7,0,-2,-3,-4,-3,2020-10-19 09:58:40.693
1,-1,-3,-7,-4,0,1,-1,2020-10-19 09:58:40.730
-1,-9,-39,-4,-11,-17,-7,-3,2020-10-19 09:58:40.768
8,-9,-3,-9,0,-38,-16,4,2020-10-19 09:58:40.806
-56,-84,-25,32,52,69,-31,-22,2020-10-19 09:58:40.843
-20,66,44,-13,38,15,10,-3,2020-10-19 09:58:40.881
59,7,-24,-25,6,0,9,9,2020-10-19 09:58:40.919
-26,-11,54,-9,-33,-5,2,1,2020-10-19 09:58:40.959
46,31,14,-4,4,-20,-3,6,2020-10-19 09:58:40.994
11,14,60,19,-10,1,3,1,2020-10-19 09:58:41.034
37,62,16,15,6,0,2,5,2020-10-19 09:58:41.071
-17,-17,1,21,-41,-14,-7,-9,2020-10-19 09:58:41.108
-86,-83,-9,7,-2,-15,-8,-25,2020-10-19 09:58:41.145
127,127,-25,21,5,23,14,31,2020-10-19 09:58:41.185
21,-15,-36,8,-13,2,7,10,2020-10-19 09:58:41.223
51,32,-4,-1,-40,-2,4,4,2020-10-19 09:58:41.260
-12,-33,37,24,12,-18,-6,-7,2020-10-19 09:58:41.299
0,-18,-86,9,-28,10,5,-3,2020-10-19 09:58:41.336
43,72,69,-7,30,48,8,9,2020-10-19 09:58:41.372
123,71,-11,-3,-10,-8,1,20,2020-10-19 09:58:41.410
73,19,-13,3,2,-6,-6,9,2020-10-19 09:58:41.449
64,79,61,-27,28,77,25,15,2020-10-19 09:58:41.488
15,-5,57,-2,10,12,-4,-6,2020-10-19 09:58:41.524
-7,3,-4,6,15,11,4,1,2020-10-19 09:58:41.561
-11,-11,-9,-2,5,6,1,-2,2020-10-19 09:58:41.599
-7,-2,5,6,-4,0,2,-1,2020-10-19 09:58:41.639
-3,4,15,5,-1,-1,0,-1,2020-10-19 09:58:41.678
4,13,7,11,34,8,4,5,2020-10-19 09:58:41.719
-2,6,-2,14,7,-2,-4,-3,2020-10-19 09:58:41.759
-6,-11,-11,1,59,-4,-5,-3,2020-10-19 09:58:41.803
-2,-3,-10,6,-1,-2,-2,0,2020-10-19 09:58:41.840
0,0,4,-1,15,1,-1,1,2020-10-19 09:58:41.885
0,2,3,9,25,4,-1,2,2020-10-19 09:58:41.924
-1,0,1,-3,4,9,1,0,2020-10-19 09:58:41.962
1,9,-3,5,48,3,-1,-1,2020-10-19 09:58:42.000
-4,-10,-3,1,-5,-5,-1,-1,2020-10-19 09:58:42.043
0,-1,-1,-4,-4,0,-2,-3,2020-10-19 09:58:42.084
1,1,2,5,0,-2,-1,0,2020-10-19 09:58:42.122
-1,0,4,4,5,0,-1,-1,2020-10-19 09:58:42.158
-1,-1,0,11,-2,1,1,0,2020-10-19 09:58:42.195
1,0,1,-5,-17,4,4,0,2020-10-19 09:58:42.233
1,-1,1,3,2,0,0,1,2020-10-19 09:58:42.269
3,1,0,0,2,1,1,3,2020-10-19 09:58:42.307
2,0,0,-8,-8,0,0,0,2020-10-19 09:58:42.344
0,0,1,0,9,3,1,1,2020-10-19 09:58:42.383
-1,-1,-3,4,3,1,-1,1,2020-10-19 09:58:42.423
-1,-1,-2,0,2,-2,-1,0,2020-10-19 09:58:42.457
-2,-5,-9,-7,-5,-4,-2,-1,2020-10-19 09:58:42.495
0,9,-6,-7,-14,-1,2,3,2020-10-19 09:58:42.534
8,2,7,8,13,8,6,6,2020-10-19 09:58:42.573
-5,4,-27,-20,32,27,1,0,2020-10-19 09:58:42.611
26,26,-15,-25,26,-36,-10,8,2020-10-19 09:58:42.654
4,4,48,-11,23,-3,-11,-7,2020-10-19 09:58:42.694
-31,-19,-30,4,-11,-36,-9,-9,2020-10-19 09:58:42.734
-57,-6,47,-13,-4,-1,-3,-12,2020-10-19 09:58:42.770
-27,-17,37,-4,21,-27,-11,-4,2020-10-19 09:58:42.809
-4,-27,-98,15,-20,20,6,2,2020-10-19 09:58:42.845
-17,-16,-76,-20,11,19,2,3,2020-10-19 09:58:42.885
22,-6,14,-14,27,-6,5,8,2020-10-19 09:58:42.922
54,31,40,-6,-4,18,7,6,2020-10-19 09:58:42.962
3,12,71,18,13,13,6,4,2020-10-19 09:58:43.000
-55,-37,-96,39,2,-16,2,-6,2020-10-19 09:58:43.039
-75,-6,41,-6,26,4,-1,-10,2020-10-19 09:58:43.075
-11,-13,-98,-11,-5,13,9,6,2020-10-19 09:58:43.115
-6,16,-13,-1,-4,22,7,4,2020-10-19 09:58:43.153
-4,-16,-98,-2,-17,-8,-5,-3,2020-10-19 09:58:43.190
-6,-31,-34,-29,3,-30,-6,4,2020-10-19 09:58:43.227
-74,-48,-73,24,-52,27,-16,-54,2020-10-19 09:58:43.267
-30,-19,-32,21,1,-12,-8,-9,2020-10-19 09:58:43.306
-64,-46,-65,21,-6,-13,-7,-13,2020-10-19 09:58:43.342
-16,-1,125,27,-35,2,-2,-8,2020-10-19 09:58:43.377
17,10,0,20,-19,-36,-3,1,2020-10-19 09:58:43.415
-19,0,34,-8,-10,-3,-2,-5,2020-10-19 09:58:43.451
4,1,-15,-20,-9,-26,-9,-2,2020-10-19 09:58:43.489
-2,-1,2,2,8,-6,-2,-1,2020-10-19 09:58:43.524
4,6,7,-4,7,-3,-1,2,2020-10-19 09:58:43.562
-2,-15,-18,3,-13,-6,-1,0,2020-10-19 09:58:43.598
-2,1,-10,-8,-26,-6,-3,-2,2020-10-19 09:58:43.638
-3,9,10,-14,-30,-8,-5,-4,2020-10-19 09:58:43.674
-2,3,3,-7,-10,1,1,0,2020-10-19 09:58:43.712
1,0,12,9,6,2,-1,2,2020-10-19 09:58:43.750
-4,4,1,13,13,-1,-4,-3,2020-10-19 09:58:43.789
-2,0,-5,4,2,-3,-2,-2,2020-10-19 09:58:43.825
0,-1,3,19,13,6,2,0,2020-10-19 09:58:43.864
1,1,1,-2,5,-1,-1,0,2020-10-19 09:58:43.903
-2,11,4,-10,-17,-1,-2,-2,2020-10-19 09:58:43.942
-3,-5,-11,-7,-7,-1,-3,-2,2020-10-19 09:58:43.978
0,-1,-4,9,-71,-25,-4,0,2020-10-19 09:58:44.019
0,1,4,6,14,10,3,0,2020-10-19 09:58:44.056
0,-6,-4,-3,6,1,2,0,2020-10-19 09:58:44.092
2,-1,4,10,8,5,4,2,2020-10-19 09:58:44.128
0,0,3,3,3,0,-1,-2,2020-10-19 09:58:44.168
-3,-8,-1,-2,14,2,-4,-1,2020-10-19 09:58:44.206
-1,5,-1,-9,-7,-3,-2,-1,2020-10-19 09:58:44.244
-3,-4,-1,-11,-27,-3,-2,-2,2020-10-19 09:58:44.280
2,-1,1,5,21,1,3,1,2020-10-19 09:58:44.318
1,2,2,3,-2,6,3,1,2020-10-19 09:58:44.354
-1,0,-1,-8,1,-2,-2,1,2020-10-19 09:58:44.392
-4,-2,-2,-1,1,-2,-2,-1,2020-10-19 09:58:44.430
-1,2,2,2,4,1,0,-1,2020-10-19 09:58:44.469
-2,-2,-3,4,-3,2,1,0,2020-10-19 09:58:44.506
-3,-6,-3,-4,-4,-7,-3,-3,2020-10-19 09:58:44.544
2,2,4,0,7,5,4,1,2020-10-19 09:58:44.583
-3,-3,-1,3,-4,2,0,-2,2020-10-19 09:58:44.622
4,5,9,-1,24,10,8,5,2020-10-19 09:58:44.658
-1,-3,-1,-3,-2,-1,0,2,2020-10-19 09:58:44.696
3,5,3,1,5,-6,-2,2,2020-10-19 09:58:44.730
1,6,-5,-3,-6,-1,0,1,2020-10-19 09:58:44.771
-12,0,4,1,-5,-7,-2,-1,2020-10-19 09:58:44.809
-5,-4,1,10,4,3,3,2,2020-10-19 09:58:44.847
0,1,-1,0,-2,-6,-4,-1,2020-10-19 09:58:44.884
3,1,-2,-6,1,7,2,1,2020-10-19 09:58:44.923
-4,0,-14,-10,-8,0,-3,-2,2020-10-19 09:58:44.961
-2,-5,-5,-1,5,3,1,-1,2020-10-19 09:58:44.997
1,0,-10,-7,-8,0,0,-1,2020-10-19 09:58:45.033
6,-1,10,2,-1,-3,-3,-1,2020-10-19 09:58:45.072
5,2,-5,-6,-6,-2,0,-1,2020-10-19 09:58:45.109
-3,-1,4,3,4,-1,-3,-2,2020-10-19 09:58:45.146
1,-6,-5,-4,0,6,2,0,2020-10-19 09:58:45.185
6,1,-5,-6,-8,-6,0,0,2020-10-19 09:58:45.227
4,-1,7,6,8,6,-1,1,2020-10-19 09:58:45.263
-13,-4,-8,-1,-1,6,0,0,2020-10-19 09:58:45.303
-5,3,-1,-5,1,10,5,3,2020-10-19 09:58:45.338
19,17,-1,-5,1,0,-2,5,2020-10-19 09:58:45.376
32,10,2,0,-1,7,1,3,2020-10-19 09:58:45.410
-5,3,7,5,3,3,-1,-1,2020-10-19 09:58:45.449
-19,-7,6,2,-2,-1,-2,-8,2020-10-19 09:58:45.490
-9,-1,0,1,-5,-10,-1,0,2020-10-19 09:58:45.528
14,5,-5,-5,-3,-7,-6,-2,2020-10-19 09:58:45.563
18,23,17,-7,-4,7,3,3,2020-10-19 09:58:45.602
5,-4,-15,3,-6,21,13,2,2020-10-19 09:58:45.639
5,3,13,6,-4,1,-3,-2,2020-10-19 09:58:45.677
1,2,-19,5,-4,0,0,0,2020-10-19 09:58:45.713
-2,-2,-12,-14,-17,-13,-3,-2,2020-10-19 09:58:45.752
1,6,12,0,8,6,0,-2,2020-10-19 09:58:45.789
9,5,5,3,9,2,1,0,2020-10-19 09:58:45.828
-8,-11,-16,-6,1,-3,2,-4,2020-10-19 09:58:45.866
2,-3,6,-7,0,-6,0,0,2020-10-19 09:58:45.906
-7,-5,1,-11,-4,-13,-6,-4,2020-10-19 09:58:45.941
-7,-4,-14,-9,-1,14,1,-5,2020-10-19 09:58:45.980
-22,-7,6,3,5,-1,2,0,2020-10-19 09:58:46.015
19,20,12,-6,-2,-13,-6,0,2020-10-19 09:58:46.054
13,3,4,-4,2,-5,0,1,2020-10-19 09:58:46.091
2,5,27,5,7,22,4,2,2020-10-19 09:58:46.128
0,-5,-11,-8,-5,-11,0,1,2020-10-19 09:58:46.164
-1,3,7,-1,9,0,-2,0,2020-10-19 09:58:46.204
1,-3,-2,-7,-2,4,3,0,2020-10-19 09:58:46.242
-3,-15,-34,-12,3,-31,-7,-1,2020-10-19 09:58:46.279
0,3,30,9,11,-1,-2,-1,2020-10-19 09:58:46.317
1,-2,13,-6,2,3,-1,-1,2020-10-19 09:58:46.356
6,5,-14,-5,6,-15,-6,1,2020-10-19 09:58:46.394
-2,14,33,-2,-5,-8,-3,-3,2020-10-19 09:58:46.432
-4,-9,-18,-8,-12,4,-2,-4,2020-10-19 09:58:46.470
2,-1,-12,4,8,-6,2,0,2020-10-19 09:58:46.510
-1,-3,-4,-1,16,-5,-3,1,2020-10-19 09:58:46.546
1,-3,-1,-6,-6,-20,-6,-3,2020-10-19 09:58:46.583
-1,2,11,1,-1,2,0,-2,2020-10-19 09:58:46.622
-1,11,22,9,-28,-5,-3,-4,2020-10-19 09:58:46.662
-3,-4,-10,6,10,14,5,0,2020-10-19 09:58:46.697
10,-4,27,-6,-7,-17,-4,0,2020-10-19 09:58:46.737
-2,3,27,4,24,51,56,10,2020-10-19 09:58:46.776
5,12,49,24,19,9,89,33,2020-10-19 09:58:46.812
-2,2,27,26,-10,-3,37,8,2020-10-19 09:58:46.849
24,36,64,4,17,47,-3,7,2020-10-19 09:58:46.890
-2,-11,78,18,7,35,-30,-14,2020-10-19 09:58:46.924
34,17,-14,-7,39,-8,-5,15,2020-10-19 09:58:46.962
-7,-24,26,-16,9,-1,-67,-18,2020-10-19 09:58:46.997
1,-19,-27,14,10,5,-17,1,2020-10-19 09:58:47.040
-10,8,40,-12,-5,-6,-13,-4,2020-10-19 09:58:47.077
-56,-35,-41,-25,23,-54,-53,-23,2020-10-19 09:58:47.112
19,18,28,7,8,86,-12,0,2020-10-19 09:58:47.148
-43,-19,16,0,2,19,1,-7,2020-10-19 09:58:47.184
-4,-9,-49,-13,12,-24,-23,-8,2020-10-19 09:58:47.222
-14,11,33,8,16,65,8,-1,2020-10-19 09:58:47.261
-2,-8,-97,12,-28,2,4,-1,2020-10-19 09:58:47.296
-5,-6,16,-8,22,15,-8,-4,2020-10-19 09:58:47.336
11,13,23,10,23,1,-8,0,2020-10-19 09:58:47.373
-6,-6,-17,-1,-55,-44,-5,-7,2020-10-19 09:58:47.411
10,3,24,-3,11,33,2,4,2020-10-19 09:58:47.448
-13,-4,-40,7,3,-45,-2,0,2020-10-19 09:58:47.490
-8,-11,17,1,14,-36,-8,-2,2020-10-19 09:58:47.529
-2,4,59,-11,-7,85,23,1,2020-10-19 09:58:47.567
21,9,3,-18,1,-1,-1,7,2020-10-19 09:58:47.605
-31,-5,-13,-13,-1,60,23,-4,2020-10-19 09:58:47.644
0,-5,-2,0,-16,20,8,4,2020-10-19 09:58:47.680
-14,-5,-15,0,-21,5,6,0,2020-10-19 09:58:47.719
-6,-11,-50,-3,-1,-42,-13,-3,2020-10-19 09:58:47.757
-14,-5,-10,-3,13,46,16,3,2020-10-19 09:58:47.796
-7,12,55,17,13,2,-8,-9,2020-10-19 09:58:47.832
4,-4,6,6,11,-36,-9,4,2020-10-19 09:58:47.872
2,-4,21,5,13,8,13,7,2020-10-19 09:58:47.909
20,-1,-4,10,10,5,-8,3,2020-10-19 09:58:47.947
-4,-1,-2,-20,-8,-8,0,-7,2020-10-19 09:58:47.986
2,8,5,-1,-9,4,3,-4,2020-10-19 09:58:48.025
16,9,4,-11,6,15,0,15,2020-10-19 09:58:48.063
2,1,-8,14,-9,-17,-18,-4,2020-10-19 09:58:48.101
-22,-11,-6,22,-5,-13,-11,-31,2020-10-19 09:58:48.139
-7,-7,-11,-35,-13,-22,-16,-2,2020-10-19 09:58:48.177
4,7,13,-9,33,73,17,4,2020-10-19 09:58:48.214
-3,-11,19,31,-3,-15,22,5,2020-10-19 09:58:48.257
-1,-10,-1,-3,-1,-1,2,1,2020-10-19 09:58:48.293
3,-5,12,7,-3,21,16,3,2020-10-19 09:58:48.329
-6,5,3,11,-2,-6,-20,-4,2020-10-19 09:58:48.364
-5,3,15,12,0,-16,-24,-8,2020-10-19 09:58:48.403
1,-1,-7,4,3,-4,3,2,2020-10-19 09:58:48.441
0,6,29,21,-11,9,8,2,2020-10-19 09:58:48.480
-1,-5,-6,-25,5,23,6,3,2020-10-19 09:58:48.516
3,1,-21,16,-14,-44,1,4,2020-10-19 09:58:48.555
3,4,7,-2,-3,-4,6,4,2020-10-19 09:58:48.593
-1,0,-4,-12,-5,5,0,-2,2020-10-19 09:58:48.634
-4,-5,-22,-4,8,17,-1,-4,2020-10-19 09:58:48.671
-2,-1,9,26,10,-25,-5,-2,2020-10-19 09:58:48.710
0,-2,-2,0,-6,1,0,0,2020-10-19 09:58:48.747
-2,-2,0,1,6,-4,-2,-2,2020-10-19 09:58:48.785
1,1,2,-26,1,6,4,1,2020-10-19 09:58:48.825
0,-1,-2,-96,-7,0,0,1,2020-10-19 09:58:48.863
-2,-1,-2,32,-10,-1,-3,-3,2020-10-19 09:58:48.902
-1,-1,9,-3,24,6,-4,-2,2020-10-19 09:58:48.945
2,6,-9,-70,-11,-9,4,-2,2020-10-19 09:58:48.982
1,-6,-6,17,7,-7,-4,0,2020-10-19 09:58:49.025
-1,-1,-6,-8,0,-2,-4,0,2020-10-19 09:58:49.062
-9,-11,-17,-72,-36,-7,17,-3,2020-10-19 09:58:49.100
6,8,2,-9,17,52,41,8,2020-10-19 09:58:49.138
-7,1,10,-8,0,-37,-98,-38,2020-10-19 09:58:49.178
8,8,8,1,-1,-32,-5,4,2020-10-19 09:58:49.215
0,-1,3,-18,-2,63,5,7,2020-10-19 09:58:49.254
-2,-2,0,47,10,-6,4,-1,2020-10-19 09:58:49.293
-4,-4,-5,-4,2,-24,-5,-4,2020-10-19 09:58:49.331
1,1,-3,34,-35,-8,-10,1,2020-10-19 09:58:49.366
0,-1,-1,-27,-1,15,-2,-3,2020-10-19 09:58:49.407
1,1,11,-4,2,-55,-5,-1,2020-10-19 09:58:49.443
2,2,4,19,6,-5,5,4,2020-10-19 09:58:49.482
2,3,4,13,0,-31,-4,-1,2020-10-19 09:58:49.519
-3,1,-6,5,-3,31,0,-11,2020-10-19 09:58:49.557
-12,-6,-7,-9,-10,-13,-22,-20,2020-10-19 09:58:49.593
0,-2,-20,9,8,12,4,2,2020-10-19 09:58:49.635
4,2,5,18,35,1,-3,7,2020-10-19 09:58:49.674
-2,-3,-9,40,-13,-28,-11,-4,2020-10-19 09:58:49.712
-7,-1,2,-82,-1,-21,-11,-12,2020-10-19 09:58:49.749
-4,-2,0,-107,-1,1,21,-14,2020-10-19 09:58:49.790
8,-4,-10,-128,0,12,-13,-3,2020-10-19 09:58:49.827
5,-6,4,7,-12,-2,37,39,2020-10-19 09:58:49.867
-1,2,3,14,6,27,25,-54,2020-10-19 09:58:49.906
-19,-7,-9,-4,3,6,-77,-37,2020-10-19 09:58:49.948
12,11,4,2,4,0,-22,23,2020-10-19 09:58:49.984
0,-1,-6,2,3,15,31,17,2020-10-19 09:58:50.034
0,2,-1,0,9,16,13,2,2020-10-19 09:58:50.072
-3,5,1,2,-5,-25,-16,-8,2020-10-19 09:58:50.110
-1,4,12,1,1,8,14,1,2020-10-19 09:58:50.146
-15,-12,-6,-2,-14,-36,-37,-23,2020-10-19 09:58:50.184
1,0,-1,0,5,10,17,2,2020-10-19 09:58:50.222
-9,1,9,1,-9,-22,-23,-18,2020-10-19 09:58:50.260
-1,2,-2,-4,-6,2,-3,-2,2020-10-19 09:58:50.297
-7,4,8,1,-6,-20,-19,-14,2020-10-19 09:58:50.334
-7,0,4,1,-5,-15,-28,-12,2020-10-19 09:58:50.370
0,1,-3,-5,-1,6,7,-1,2020-10-19 09:58:50.411
-4,-5,-3,-2,-11,-14,-8,0,2020-10-19 09:58:50.447
-4,-8,5,8,-1,-17,-13,-7,2020-10-19 09:58:50.486
0,2,3,-12,7,11,3,1,2020-10-19 09:58:50.525
-2,3,4,-83,-2,-8,-9,-8,2020-10-19 09:58:50.563
3,0,0,34,1,1,4,3,2020-10-19 09:58:50.600
-9,-6,-10,18,-19,-92,-34,-12,2020-10-19 09:58:50.641
4,-2,-2,-38,-6,0,4,9,2020-10-19 09:58:50.680
-3,0,4,52,0,9,9,-2,2020-10-19 09:58:50.717
-2,3,-7,22,14,15,4,5,2020-10-19 09:58:50.753
-14,-8,18,-121,-11,-3,-18,-12,2020-10-19 09:58:50.795
-6,93,23,18,-6,-9,4,0,2020-10-19 09:58:50.831
9,94,99,-1,-113,8,-25,-10,2020-10-19 09:58:50.867
-113,-29,-93,50,63,-34,-13,1,2020-10-19 09:58:50.904
86,106,96,-77,91,15,-18,96,2020-10-19 09:58:50.943
-20,-30,14,-11,-47,-64,-29,-128,2020-10-19 09:58:50.979
-18,-116,-66,-3,-70,106,8,127,2020-10-19 09:58:51.017
8,-76,60,-93,-15,39,-13,-128,2020-10-19 09:58:51.056
-1,27,-32,15,-47,-41,-24,-94,2020-10-19 09:58:51.094
3,-23,37,54,34,-40,-15,-128,2020-10-19 09:58:51.131
8,-55,20,-5,11,19,106,-17,2020-10-19 09:58:51.169
-7,85,21,84,12,-51,45,79,2020-10-19 09:58:51.206
-15,12,30,-60,13,28,20,8,2020-10-19 09:58:51.260
28,-126,-108,93,-8,18,-14,8,2020-10-19 09:58:51.306
31,-80,44,52,2,10,-24,-7,2020-10-19 09:58:51.355
36,5,4,127,-25,-10,-47,-120,2020-10-19 09:58:51.405
87,-16,-39,25,3,59,-49,0,2020-10-19 09:58:51.453
8,-17,-94,44,0,-11,4,76,2020-10-19 09:58:51.505
-15,-62,-65,79,-25,14,-22,50,2020-10-19 09:58:51.553
-21,-36,-95,13,-10,18,37,67,2020-10-19 09:58:51.604
126,-33,-68,3,-1,-11,37,35,2020-10-19 09:58:51.654
118,28,27,1,10,6,4,125,2020-10-19 09:58:51.696
-64,-128,12,0,37,-45,45,-77,2020-10-19 09:58:51.744
-6,105,119,-1,-38,79,23,47,2020-10-19 09:58:51.791
-80,-128,-128,-128,36,22,-13,9,2020-10-19 09:58:51.832
21,49,-6,-56,13,-89,-85,-57,2020-10-19 09:58:51.878
2,0,91,-13,-102,53,127,65,2020-10-19 09:58:51.921
-64,6,-109,-5,86,18,34,28,2020-10-19 09:58:51.960
36,4,25,110,35,-85,118,25,2020-10-19 09:58:52.001
-81,30,120,101,-128,-83,-122,-128,2020-10-19 09:58:52.042
-46,-92,-69,-35,-62,-17,-11,-56,2020-10-19 09:58:52.085
-7,-1,25,-27,25,4,31,-14,2020-10-19 09:58:52.123
-39,93,-125,-128,69,3,-57,-128,2020-10-19 09:58:52.164
85,-21,-87,118,45,4,-14,114,2020-10-19 09:58:52.200
76,-16,-115,-45,6,1,-6,127,2020-10-19 09:58:52.240
-7,-3,-7,-128,12,-27,2,-98,2020-10-19 09:58:52.280
78,11,-88,19,48,76,-65,101,2020-10-19 09:58:52.318
-117,20,127,127,-66,-76,-94,-56,2020-10-19 09:58:52.353
-49,-128,95,-91,110,127,127,127,2020-10-19 09:58:52.390
127,103,127,5,-128,-128,-128,-97,2020-10-19 09:58:52.428
-126,127,46,-62,-128,-128,-128,1,2020-10-19 09:58:52.467
124,101,45,-128,92,92,113,78,2020-10-19 09:58:52.504
-116,-76,-73,-41,-119,-121,-128,-106,2020-10-19 09:58:52.543
-29,-11,127,-17,5,11,48,63,2020-10-19 09:58:52.580
-32,22,38,4,-101,-51,-47,-39,2020-10-19 09:58:52.621
7,13,10,-1,9,0,10,-9,2020-10-19 09:58:52.661
14,6,1,1,17,12,23,37,2020-10-19 09:58:52.701
19,-9,-7,9,8,-21,-45,16,2020-10-19 09:58:52.738
7,4,-3,-19,-17,-3,-1,-36,2020-10-19 09:58:52.778
3,8,6,37,23,15,34,7,2020-10-19 09:58:52.817
-6,-1,-2,10,11,3,21,13,2020-10-19 09:58:52.855
3,-7,-12,-30,1,15,52,34,2020-10-19 09:58:52.895
22,6,0,5,9,-3,3,16,2020-10-19 09:58:52.934
5,-7,0,19,8,4,-3,9,2020-10-19 09:58:52.971
5,4,-3,11,0,-3,6,1,2020-10-19 09:58:53.011
3,14,12,11,1,10,-5,0,2020-10-19 09:58:53.048
-2,-10,-8,4,-5,-1,-5,-8,2020-10-19 09:58:53.085
-6,-4,5,-4,14,4,2,-10,2020-10-19 09:58:53.122
1,3,7,-4,-18,-13,-22,-2,2020-10-19 09:58:53.164
2,0,-2,-20,0,1,-12,-2,2020-10-19 09:58:53.201
-5,-12,-7,-13,-2,-12,-13,-6,2020-10-19 09:58:53.241
-3,-6,-14,-33,-30,-7,-12,-4,2020-10-19 09:58:53.278
-3,-7,2,15,3,-1,-9,-6,2020-10-19 09:58:53.320
-1,-2,-6,-2,2,6,29,2,2020-10-19 09:58:53.360
-2,-2,-5,-15,-16,-1,-4,0,2020-10-19 09:58:53.400
-3,-7,-7,-19,-4,-17,-22,-5,2020-10-19 09:58:53.438
-3,-3,-2,13,-4,-12,-15,-5,2020-10-19 09:58:53.478
3,-1,-6,-32,-19,15,33,9,2020-10-19 09:58:53.515
-2,2,-2,-14,-13,3,24,-1,2020-10-19 09:58:53.554
-7,-5,-1,-25,-3,-11,-17,-11,2020-10-19 09:58:53.591
-7,-15,-13,-12,-6,-8,-28,-10,2020-10-19 09:58:53.631
-1,1,-1,1,9,-6,-21,-4,2020-10-19 09:58:53.669
-7,2,11,24,14,-7,-11,-6,2020-10-19 09:58:53.711
1,0,-5,-37,0,-3,-22,-2,2020-10-19 09:58:53.751
7,-5,-9,-24,-22,2,58,20,2020-10-19 09:58:53.789
-1,1,-3,-2,6,-12,-24,-4,2020-10-19 09:58:53.827
-4,-5,-4,9,-7,-12,-12,-5,2020-10-19 09:58:53.869
-2,7,6,11,-7,3,-3,-2,2020-10-19 09:58:53.906
-1,-1,1,6,-3,6,3,-3,2020-10-19 09:58:53.947
-1,-4,-7,-8,-7,3,4,-4,2020-10-19 09:58:53.988
6,12,4,20,8,-2,-18,-21,2020-10-19 09:58:54.030
-2,4,0,-19,0,-7,-3,-7,2020-10-19 09:58:54.069
-2,2,8,-5,-2,8,23,-1,2020-10-19 09:58:54.110
-15,-19,-8,-5,5,-1,-27,-19,2020-10-19 09:58:54.150
-5,1,8,34,22,20,30,8,2020-10-19 09:58:54.189
4,-4,-1,-6,-9,2,17,15,2020-10-19 09:58:54.230
-1,-2,-7,8,2,13,29,0,2020-10-19 09:58:54.270
-5,-8,-6,10,6,-5,-39,-13,2020-10-19 09:58:54.309
-9,2,-2,-36,-18,-4,-35,-7,2020-10-19 09:58:54.351
10,4,1,30,12,7,29,13,2020-10-19 09:58:54.390
6,13,4,-11,-20,-2,22,8,2020-10-19 09:58:54.431
-12,-7,-7,3,-12,-8,-61,-23,2020-10-19 09:58:54.469
-1,-10,-4,2,-9,1,-25,-7,2020-10-19 09:58:54.508
-2,-6,-8,9,2,0,-32,-6,2020-10-19 09:58:54.548
-3,-4,-3,-23,-8,3,17,-4,2020-10-19 09:58:54.587
-5,-1,3,2,8,-3,-17,-13,2020-10-19 09:58:54.626
-11,1,25,3,3,-2,-29,2,2020-10-19 09:58:54.668
-5,-7,7,0,4,-4,13,-8,2020-10-19 09:58:54.706
6,-2,13,-4,-16,-12,-24,-1,2020-10-19 09:58:54.746
-6,-6,-13,-14,-10,-3,-36,-4,2020-10-19 09:58:54.784
-6,-5,-5,-12,5,-2,-7,-19,2020-10-19 09:58:54.825
-7,-6,-1,3,1,5,6,-14,2020-10-19 09:58:54.863
8,6,0,-1,-1,11,40,24,2020-10-19 09:58:54.904
1,-1,-1,-4,-11,1,11,5,2020-10-19 09:58:54.943
-3,-5,1,0,2,-9,-14,-6,2020-10-19 09:58:54.984
-2,3,0,2,7,5,0,-4,2020-10-19 09:58:55.021
-2,2,-2,-1,3,3,4,-4,2020-10-19 09:58:55.061
2,1,-4,0,0,5,2,2,2020-10-19 09:58:55.099
-3,-1,1,4,3,-3,-7,-1,2020-10-19 09:58:55.142
1,0,-4,2,2,-1,-2,0,2020-10-19 09:58:55.179
-3,-3,0,-2,-15,-6,-12,-1,2020-10-19 09:58:55.218
-2,-1,-2,4,3,0,-4,-3,2020-10-19 09:58:55.258
-3,0,3,-2,21,0,-12,-8,2020-10-19 09:58:55.297
-1,-1,3,-1,-32,7,1,-5,2020-10-19 09:58:55.335
-5,1,-12,2,19,-2,-6,-5,2020-10-19 09:58:55.376
-7,5,9,2,19,7,15,6,2020-10-19 09:58:55.416
4,-3,-4,-9,-16,-7,-21,-1,2020-10-19 09:58:55.454
-3,0,-2,0,-2,-8,-9,-13,2020-10-19 09:58:55.495
-2,1,0,10,20,1,-2,-5,2020-10-19 09:58:55.536
-3,-6,0,0,-7,-14,-10,14,2020-10-19 09:58:55.572
-3,0,7,-6,8,11,14,35,2020-10-19 09:58:55.612
-6,-1,1,-7,5,5,1,-16,2020-10-19 09:58:55.652
13,-7,-7,6,-2,13,15,47,2020-10-19 09:58:55.691
42,10,-4,-11,-14,15,60,54,2020-10-19 09:58:55.731
-8,-2,-1,-1,-4,1,-1,-30,2020-10-19 09:58:55.771
-2,-4,0,3,3,4,-9,-59,2020-10-19 09:58:55.806
-15,-8,-3,1,-7,-10,-9,-52,2020-10-19 09:58:55.844
-4,-2,2,4,3,0,5,14,2020-10-19 09:58:55.881
4,6,6,3,11,-1,2,-3,2020-10-19 09:58:55.920
-4,-8,-5,-4,-8,-11,-9,3,2020-10-19 09:58:55.956
0,-25,10,-10,-17,4,10,-4,2020-10-19 09:58:55.996
-11,-24,-9,-1,-32,-4,-11,11,2020-10-19 09:58:56.035
1,3,-7,9,6,2,2,-9,2020-10-19 09:58:56.075
0,-4,0,-1,-5,0,16,-7,2020-10-19 09:58:56.112
-2,1,0,1,1,9,14,3,2020-10-19 09:58:56.153
0,2,1,3,-3,-1,1,1,2020-10-19 09:58:56.187
0,-6,44,-7,-13,-5,-1,-1,2020-10-19 09:58:56.225
-76,-120,35,-108,-101,-57,-52,-15,2020-10-19 09:58:56.264
-78,-109,-115,111,70,-116,-120,-65,2020-10-19 09:58:56.307
-47,-3,41,121,-111,-119,-104,114,2020-10-19 09:58:56.344
72,40,0,127,23,34,-37,15,2020-10-19 09:58:56.383
-1,7,-35,-128,6,17,13,49,2020-10-19 09:58:56.423
95,0,-118,-59,8,-4,-2,10,2020-10-19 09:58:56.465
22,-105,17,81,1,-35,0,-14,2020-10-19 09:58:56.504
7,65,20,-128,-39,-70,-58,1,2020-10-19 09:58:56.542
3,118,-27,-57,58,-62,-52,-81,2020-10-19 09:58:56.581
1,-118,6,4,-79,54,30,34,2020-10-19 09:58:56.621
-111,-121,66,-128,-12,-101,-111,-8,2020-10-19 09:58:56.657
113,108,-4,-5,-105,116,-44,-5,2020-10-19 09:58:56.698
-94,83,-7,17,-7,62,-71,-94,2020-10-19 09:58:56.738
-42,87,127,35,-38,-48,-103,-41,2020-10-19 09:58:56.778
-11,-42,30,9,18,-10,127,-2,2020-10-19 09:58:56.816
-21,11,49,-17,-23,-15,-42,-2,2020-10-19 09:58:56.857
5,-52,-75,1,17,7,0,4,2020-10-19 09:58:56.896
79,32,65,-88,-6,13,7,87,2020-10-19 09:58:56.937
70,10,-4,-56,-10,-4,-28,71,2020-10-19 09:58:56.976
-128,-33,75,127,-35,-15,-18,-119,2020-10-19 09:58:57.017
-90,1,114,-61,-20,-23,-39,-127,2020-10-19 09:58:57.056
55,-32,83,-60,-1,-5,9,43,2020-10-19 09:58:57.097
18,65,42,38,30,-19,-52,-8,2020-10-19 09:58:57.136
33,-8,-81,91,6,12,13,14,2020-10-19 09:58:57.175
-111,-18,24,63,-7,-2,-2,-68,2020-10-19 09:58:57.213
127,8,-38,-28,-33,0,-2,45,2020-10-19 09:58:57.252
-11,29,-66,7,38,-1,3,35,2020-10-19 09:58:57.289
34,-13,-24,58,-5,0,3,2,2020-10-19 09:58:57.330
90,-10,33,-1,-9,-5,-2,-9,2020-10-19 09:58:57.368
54,-24,56,98,-54,-12,-23,-126,2020-10-19 09:58:57.409
-120,54,-25,-8,74,-5,-6,-8,2020-10-19 09:58:57.449
-32,-8,-11,-22,3,1,-5,-3,2020-10-19 09:58:57.486
-95,-9,7,-7,-15,-1,-5,-16,2020-10-19 09:58:57.522
34,5,15,9,51,53,26,50,2020-10-19 09:58:57.560
-24,-2,-5,24,-2,-8,-8,-7,2020-10-19 09:58:57.596
61,-3,-14,4,-23,24,53,-48,2020-10-19 09:58:57.639
15,-3,3,17,-3,31,16,-57,2020-10-19 09:58:57.676
127,41,18,-103,-128,-128,-128,-128,2020-10-19 09:58:57.718
66,2,-6,-16,-23,-18,-22,-63,2020-10-19 09:58:57.756
-23,-6,1,-3,35,32,35,25,2020-10-19 09:58:57.792
115,22,10,-66,-104,-96,-102,-125,2020-10-19 09:58:57.833
73,9,2,-23,-44,-43,-37,-94,2020-10-19 09:58:57.871
14,16,2,-24,-35,-55,-55,-14,2020-10-19 09:58:57.906
44,10,1,-39,-70,-74,-75,-63,2020-10-19 09:58:57.949
33,15,7,-30,-42,-49,-41,-38,2020-10-19 09:58:57.986
-49,-2,-11,24,56,50,52,41,2020-10-19 09:58:58.024
54,0,-3,-23,-27,-12,-28,-67,2020-10-19 09:58:58.060
24,5,6,-10,-32,-34,-31,-41,2020-10-19 09:58:58.099
63,19,31,16,-74,-56,-73,-60,2020-10-19 09:58:58.135
18,-13,0,12,-18,18,1,-20,2020-10-19 09:58:58.174
18,4,1,43,62,80,63,-42,2020-10-19 09:58:58.213
70,11,-5,-18,-13,-27,-65,-15,2020-10-19 09:58:58.253
57,14,7,-59,-61,-45,-39,-35,2020-10-19 09:58:58.289
126,6,-22,-64,55,29,12,45,2020-10-19 09:58:58.328
66,14,-32,-103,77,20,16,75,2020-10-19 09:58:58.368
-2,-12,23,-31,-16,-5,-8,-17,2020-10-19 09:58:58.407
103,-42,24,-18,-17,-4,-7,2,2020-10-19 09:58:58.445
-63,-16,10,-41,10,0,-2,-13,2020-10-19 09:58:58.485
-9,10,31,-128,-38,-10,-6,-47,2020-10-19 09:58:58.522
-88,-9,-32,92,-63,2,-1,13,2020-10-19 09:58:58.560
-83,-24,2,91,-80,-11,-12,-69,2020-10-19 09:58:58.597
-75,-19,-8,76,-128,-14,-9,-100,2020-10-19 09:58:58.638
-128,-13,-1,18,-76,-65,5,-67,2020-10-19 09:58:58.674
-106,-14,-9,28,112,99,-125,-128,2020-10-19 09:58:58.712
-18,15,1,-19,-125,-108,-58,-80,2020-10-19 09:58:58.751
-118,-7,-14,-35,-108,38,12,54,2020-10-19 09:58:58.789
31,-12,-6,67,55,-17,-128,-105,2020-10-19 09:58:58.825
19,36,-46,75,-23,-100,39,-73,2020-10-19 09:58:58.863
-6,-15,-27,-27,16,68,-51,-46,2020-10-19 09:58:58.903
-128,-53,-123,-128,-114,127,-47,-128,2020-10-19 09:58:58.942
127,50,127,127,127,-27,118,127,2020-10-19 09:58:58.979
29,12,31,31,3,12,47,29,2020-10-19 09:58:59.020
92,-21,104,100,54,-101,-75,95,2020-10-19 09:58:59.058
97,44,116,115,-20,-55,4,87,2020-10-19 09:58:59.097
-104,-84,-33,-28,-39,48,103,-84,2020-10-19 09:58:59.137
-125,-72,-128,-128,-116,-19,-84,-128,2020-10-19 09:58:59.176
-97,27,-5,51,92,-36,74,57,2020-10-19 09:58:59.215
70,43,79,61,72,-21,38,63,2020-10-19 09:58:59.257
-106,-38,-128,-109,-69,64,81,-73,2020-10-19 09:58:59.294
82,60,74,89,93,14,20,93,2020-10-19 09:58:59.338
-128,-48,-123,-128,-8,-27,5,-112,2020-10-19 09:58:59.374
-61,37,-51,-46,-73,94,42,-24,2020-10-19 09:58:59.416
2,12,11,41,2,15,-52,-13,2020-10-19 09:58:59.456
35,41,48,53,39,-128,-81,-102,2020-10-19 09:58:59.493
68,78,22,33,38,47,90,82,2020-10-19 09:58:59.529
-12,-13,-33,-25,-8,100,-55,-43,2020-10-19 09:58:59.569
41,99,37,37,-95,-39,44,70,2020-10-19 09:58:59.608
-48,-14,-73,3,54,39,45,-53,2020-10-19 09:58:59.651
32,-2,60,66,-40,-71,-28,7,2020-10-19 09:58:59.690
-17,8,-44,-41,-8,-18,-4,-2,2020-10-19 09:58:59.732
-9,-18,1,-10,8,-5,1,-3,2020-10-19 09:58:59.770
-3,-26,-20,-20,1,4,-5,3,2020-10-19 09:58:59.809
-25,-28,-68,-51,-54,-23,-35,-4,2020-10-19 09:58:59.845
8,14,24,34,20,35,13,-68,2020-10-19 09:58:59.886
-13,-23,-22,-31,-18,-34,-7,10,2020-10-19 09:58:59.924
-14,-17,58,-39,80,-93,60,36,2020-10-19 09:58:59.963
64,14,115,101,-69,52,47,20,2020-10-19 09:59:00.005
-47,-12,-65,-25,42,-121,-69,-54,2020-10-19 09:59:00.048
-54,38,20,5,49,91,-54,8,2020-10-19 09:59:00.088
99,59,29,35,-12,-67,-40,83,2020-10-19 09:59:00.130
-9,-28,77,18,-18,-17,-74,-51,2020-10-19 09:59:00.171
7,27,15,11,29,1,17,13,2020-10-19 09:59:00.211
7,-27,-5,4,-7,-9,10,-22,2020-10-19 09:59:00.248
-128,-41,1,-17,63,30,38,-104,2020-10-19 09:59:00.288
61,-5,111,-7,37,4,-52,127,2020-10-19 09:59:00.325
-3,-98,-3,-4,-33,18,-101,-91,2020-10-19 09:59:00.362
-20,-35,-128,-2,48,31,-30,-106,2020-10-19 09:59:00.401
-93,76,28,-2,-89,-16,-8,-95,2020-10-19 09:59:00.439
76,-98,-22,-1,-27,59,-22,46,2020-10-19 09:59:00.476
-19,20,-14,0,66,12,3,8,2020-10-19 09:59:00.516
33,-11,5,-1,6,3,-4,23,2020-10-19 09:59:00.555
-9,-15,-11,-1,-37,-1,-5,110,2020-10-19 09:59:00.595
-9,8,10,-1,-2,8,-40,-28,2020-10-19 09:59:00.635
0,-20,12,38,77,55,-1,-78,2020-10-19 09:59:00.675
-2,-16,4,-54,33,-57,-4,5,2020-10-19 09:59:00.711
108,-21,-1,4,4,-8,-11,56,2020-10-19 09:59:00.754
-59,29,19,9,3,31,-8,-7,2020-10-19 09:59:00.798
-13,10,-3,88,0,13,-3,-2,2020-10-19 09:59:00.839
-95,-8,2,-23,112,-21,115,77,2020-10-19 09:59:00.879
102,-10,-12,-128,-128,-66,-43,127,2020-10-19 09:59:00.921
-16,-56,-62,-67,-24,-106,-48,-51,2020-10-19 09:59:00.961
-42,-7,127,114,-111,113,-128,29,2020-10-19 09:59:00.996
-115,127,62,-126,119,30,127,37,2020-10-19 09:59:01.035
113,-113,-124,-85,-121,-112,29,44,2020-10-19 09:59:01.077
97,-40,-98,86,112,19,11,-116,2020-10-19 09:59:01.114
-127,127,-128,-6,127,-13,-128,-88,2020-10-19 09:59:01.156
-52,45,92,1,-128,-9,1,3,2020-10-19 09:59:01.196
-1,-105,-79,2,98,-7,22,-97,2020-10-19 09:59:01.236
2,-55,-48,-1,-91,-1,-128,-64,2020-10-19 09:59:01.276
-1,-36,-36,-1,-121,1,60,-5,2020-10-19 09:59:01.318
-1,4,6,0,3,14,-30,3,2020-10-19 09:59:01.358
0,19,-31,-1,-55,-4,83,-51,2020-10-19 09:59:01.396
0,1,7,-1,0,-3,-15,-4,2020-10-19 09:59:01.437
0,0,1,-1,2,4,-8,-4,2020-10-19 09:59:01.475
-1,0,0,-1,-1,-8,0,-3,2020-10-19 09:59:01.514
-1,3,1,-1,0,-1,-5,-7,2020-10-19 09:59:01.554
-1,-1,1,-1,0,-6,-3,-1,2020-10-19 09:59:01.593
-1,-6,-3,-1,0,5,-7,19,2020-10-19 09:59:01.630
0,7,4,-1,-1,-5,4,39,2020-10-19 09:59:01.672
-1,-2,-5,-1,-1,3,-2,-12,2020-10-19 09:59:01.715
-1,-2,-8,-1,-1,-5,-7,-36,2020-10-19 09:59:01.755
-1,3,13,-4,-1,-9,-4,3,2020-10-19 09:59:01.800
-1,-8,-12,3,-1,-3,-1,37,2020-10-19 09:59:01.849
-2,-4,-17,-7,0,1,1,-5,2020-10-19 09:59:01.896
1,-3,-2,-15,-1,0,-2,16,2020-10-19 09:59:01.938
-10,-3,-6,-5,1,0,-1,-12,2020-10-19 09:59:01.981
-6,-1,-3,-13,-7,-1,-4,-1,2020-10-19 09:59:02.024
3,1,3,8,14,-5,6,6,2020-10-19 09:59:02.062
1,1,-7,2,-14,-3,1,-6,2020-10-19 09:59:02.101
4,-1,2,2,1,-3,5,22,2020-10-19 09:59:02.144
-2,2,2,-16,-27,0,4,-8,2020-10-19 09:59:02.183
-4,-1,-3,-7,2,-2,-2,-22,2020-10-19 09:59:02.226
-1,-2,-6,-6,-38,1,-7,11,2020-10-19 09:59:02.266
-6,-4,0,-8,-5,0,-12,-8,2020-10-19 09:59:02.306
4,-1,-13,0,14,1,11,0,2020-10-19 09:59:02.345
1,0,1,-4,-16,-5,-3,-6,2020-10-19 09:59:02.387
-11,0,6,4,7,-2,-1,-18,2020-10-19 09:59:02.429
-4,-1,-12,-8,-4,5,45,-5,2020-10-19 09:59:02.467
1,17,-2,-4,-27,-4,-23,-10,2020-10-19 09:59:02.508
-10,49,90,-11,-5,-2,-97,-17,2020-10-19 09:59:02.549
17,69,15,0,-40,-5,-22,39,2020-10-19 09:59:02.590
6,-24,-48,-10,11,-1,41,-12,2020-10-19 09:59:02.629
21,-111,-59,6,-44,0,-40,7,2020-10-19 09:59:02.668
-16,127,103,-8,32,2,46,-22,2020-10-19 09:59:02.707
-16,-19,-7,7,12,0,-10,-18,2020-10-19 09:59:02.746
-6,-11,-11,-1,-12,0,-12,4,2020-10-19 09:59:02.786
2,-4,-4,-2,-9,-4,2,2,2020-10-19 09:59:02.826
-28,-17,-4,-1,6,4,-9,0,2020-10-19 09:59:02.863
19,-9,-3,0,6,-3,-7,26,2020-10-19 09:59:02.903
-11,25,19,0,14,-4,-3,-13,2020-10-19 09:59:02.943
13,13,-4,2,-3,0,-3,-2,2020-10-19 09:59:02.985
17,-3,2,6,-6,-3,7,63,2020-10-19 09:59:03.026
29,-13,12,8,-3,-8,-4,-1,2020-10-19 09:59:03.065
36,0,11,-3,-3,0,13,17,2020-10-19 09:59:03.105
36,0,11,-3,-3,0,13,17,2020-10-19 09:59:03.146
18,3,-4,1,10,-1,-7,-20,2020-10-19 09:59:03.186
-49,-24,-8,4,3,8,-1,8,2020-10-19 09:59:03.227
11,-4,0,-5,-8,-3,7,-1,2020-10-19 09:59:03.266
2,1,0,1,-13,0,1,8,2020-10-19 09:59:03.306
17,-11,-3,2,-4,-3,-12,15,2020-10-19 09:59:03.349
-15,0,2,8,-5,-3,-6,-39,2020-10-19 09:59:03.391
-13,-14,-3,-1,-1,-1,13,-1,2020-10-19 09:59:03.436
-3,5,-3,-3,1,4,2,8,2020-10-19 09:59:03.475
0,-3,2,0,2,-2,-2,-21,2020-10-19 09:59:03.514
7,3,2,5,14,-3,9,25,2020-10-19 09:59:03.556
-1,5,-3,-7,-43,2,4,3,2020-10-19 09:59:03.596
5,1,-3,2,-13,-2,-6,7,2020-10-19 09:59:03.636
-5,0,2,-4,8,5,-2,-19,2020-10-19 09:59:03.676
7,5,5,7,54,2,2,4,2020-10-19 09:59:03.716
-4,-3,2,3,-4,-10,1,-2,2020-10-19 09:59:03.757
0,3,2,1,-3,9,-1,-12,2020-10-19 09:59:03.798
3,0,-1,-1,0,0,3,14,2020-10-19 09:59:03.836
-2,3,1,-4,-10,-3,-9,-6,2020-10-19 09:59:03.876
-6,-4,0,0,1,-1,2,-10,2020-10-19 09:59:03.914
4,-8,-5,1,-10,31,1,7,2020-10-19 09:59:03.953
-5,0,-24,2,-7,19,-6,-9,2020-10-19 09:59:03.994
-5,6,-1,3,-3,-14,-7,-6,2020-10-19 09:59:04.031
-3,0,-13,0,-27,2,2,0,2020-10-19 09:59:04.070
3,-1,-1,-2,7,-10,1,8,2020-10-19 09:59:04.110
1,4,2,-1,-14,-6,-2,-5,2020-10-19 09:59:04.148
-5,4,-1,-3,-9,3,-15,-6,2020-10-19 09:59:04.195
-1,-1,-30,127,-38,4,-1,-6,2020-10-19 09:59:04.234
-99,79,9,-102,-50,0,-26,56,2020-10-19 09:59:04.274
56,-59,48,107,71,-36,94,35,2020-10-19 09:59:04.315
6,-76,-11,25,-38,-59,27,0,2020-10-19 09:59:04.356
2,-104,-9,-2,-20,-26,6,-2,2020-10-19 09:59:04.397
109,125,-2,1,-11,107,-50,110,2020-10-19 09:59:04.435
-3,34,-23,-21,3,9,86,103,2020-10-19 09:59:04.477
-113,15,127,-67,37,67,23,-118,2020-10-19 09:59:04.515
-108,-119,50,127,-81,55,-22,-89,2020-10-19 09:59:04.555
127,31,4,16,-87,-49,-54,127,2020-10-19 09:59:04.596
-54,-7,2,-5,108,20,-78,-114,2020-10-19 09:59:04.644
118,-100,-127,-27,-58,40,-89,69,2020-10-19 09:59:04.683
-74,19,21,16,-110,-7,50,13,2020-10-19 09:59:04.724
15,27,-41,127,77,26,-68,2,2020-10-19 09:59:04.763
24,23,39,100,48,-49,45,-2,2020-10-19 09:59:04.805
66,-128,-128,-70,-77,119,-77,33,2020-10-19 09:59:04.844
-128,-122,43,111,30,24,78,15,2020-10-19 09:59:04.884
72,-84,1,-86,-88,120,-128,108,2020-10-19 09:59:04.924
41,-30,-64,-88,22,-46,99,127,2020-10-19 09:59:04.963
-128,-33,-65,53,87,-29,-95,-128,2020-10-19 09:59:05.001
-32,127,49,31,-5,25,65,61,2020-10-19 09:59:05.044
61,-96,-90,-121,66,65,68,-97,2020-10-19 09:59:05.083
84,-128,96,84,40,70,30,75,2020-10-19 09:59:05.124
-102,-100,-112,-126,-95,49,62,-112,2020-10-19 09:59:05.167
1,15,-78,-15,-9,-43,19,-7,2020-10-19 09:59:05.207
-8,-46,-54,-57,-58,-5,-46,-37,2020-10-19 09:59:05.248
66,62,53,1,13,72,55,70,2020-10-19 09:59:05.291
50,51,26,90,57,-19,-20,-108,2020-10-19 09:59:05.330
127,-43,-17,-13,-20,-18,-23,41,2020-10-19 09:59:05.368
75,91,73,79,83,29,38,30,2020-10-19 09:59:05.407
-90,127,116,127,105,35,115,80,2020-10-19 09:59:05.446
127,-85,-128,28,16,63,22,78,2020-10-19 09:59:05.484
-32,-81,-12,-1,-57,-62,-101,-45,2020-10-19 09:59:05.524
26,-103,-37,33,37,60,19,71,2020-10-19 09:59:05.562
31,110,-109,0,-51,15,4,16,2020-10-19 09:59:05.602
-11,11,42,-3,21,1,-3,-1,2020-10-19 09:59:05.644
10,5,25,-1,-12,-1,1,0,2020-10-19 09:59:05.688
-2,54,40,-37,-43,107,-1,-1,2020-10-19 09:59:05.729
-4,-120,-107,-128,-111,3,-1,-1,2020-10-19 09:59:05.767
-1,-94,-20,-66,-29,-71,-1,0,2020-10-19 09:59:05.807
106,-6,9,-13,-42,59,-1,-24,2020-10-19 09:59:05.849
-128,-2,8,-12,26,-67,127,-128,2020-10-19 09:59:05.887
-49,127,3,0,3,-105,-112,-59,2020-10-19 09:59:05.925
-12,-128,0,-1,-10,-75,-32,1,2020-10-19 09:59:05.963
2,47,0,0,-4,84,-118,-1,2020-10-19 09:59:06.001
0,-23,-125,-124,-127,-34,127,-106,2020-10-19 09:59:06.041
-2,-46,127,-58,127,-2,-103,-17,2020-10-19 09:59:06.080
-110,-6,-84,100,-49,-66,-128,-128,2020-10-19 09:59:06.118
127,-50,104,127,-4,127,125,121,2020-10-19 09:59:06.157
-95,102,-104,-103,114,-111,-95,-89,2020-10-19 09:59:06.196
-4,-29,-80,28,127,-53,-42,-14,2020-10-19 09:59:06.238
127,-31,-1,-38,-128,116,-4,-120,2020-10-19 09:59:06.277
-15,114,11,-4,-65,45,-98,-46,2020-10-19 09:59:06.316
8,-128,-12,-7,-13,-121,-54,-50,2020-10-19 09:59:06.355
-111,-119,-128,-71,-117,-66,-81,-65,2020-10-19 09:59:06.396
127,114,105,101,104,-19,-6,90,2020-10-19 09:59:06.433
20,55,18,13,19,-7,-89,-119,2020-10-19 09:59:06.472
-7,-75,16,2,0,-2,61,108,2020-10-19 09:59:06.513
-86,4,27,8,0,2,-22,112,2020-10-19 09:59:06.551
13,-8,5,23,-1,0,-5,-107,2020-10-19 09:59:06.595
9,4,8,-13,-1,4,3,0,2020-10-19 09:59:06.632
-12,4,8,11,-1,-8,-4,-1,2020-10-19 09:59:06.671
2,-1,10,55,0,20,16,21,2020-10-19 09:59:06.711
7,17,29,-128,-1,-10,-38,-22,2020-10-19 09:59:06.752
-7,6,12,-50,-1,-3,11,-10,2020-10-19 09:59:06.793
-3,4,40,-2,-1,-3,12,-3,2020-10-19 09:59:06.833
-11,-15,-24,48,4,-5,0,2,2020-10-19 09:59:06.868
17,9,26,-13,20,30,14,6,2020-10-19 09:59:06.909
0,-4,-3,1,-5,8,-12,-2,2020-10-19 09:59:06.949
-1,-3,0,0,-16,-17,-9,-7,2020-10-19 09:59:06.985
10,0,13,1,5,-20,-21,6,2020-10-19 09:59:07.026
-2,-3,0,-8,-12,-36,-21,-5,2020-10-19 09:59:07.064
3,10,34,-3,-3,20,15,-4,2020-10-19 09:59:07.102
-4,-2,10,-3,-1,-8,4,10,2020-10-19 09:59:07.141
-6,3,-10,-9,15,-8,1,0,2020-10-19 09:59:07.180
-3,1,6,-2,6,21,3,-1,2020-10-19 09:59:07.218
7,3,7,-1,-6,-15,-17,-9,2020-10-19 09:59:07.261
1,-1,-8,-10,-24,-7,-10,-4,2020-10-19 09:59:07.297
4,-4,-41,6,4,-38,-6,-2,2020-10-19 09:59:07.334
-5,1,-30,4,-4,15,1,-3,2020-10-19 09:59:07.373
9,-5,14,1,2,15,1,3,2020-10-19 09:59:07.411
2,-5,0,10,-7,-7,-3,-1,2020-10-19 09:59:07.449
1,-3,-28,-1,6,-9,-13,-6,2020-10-19 09:59:07.486
-1,-1,-10,-4,6,6,3,3,2020-10-19 09:59:07.525
-2,1,0,-6,-2,-6,-6,-6,2020-10-19 09:59:07.562
-1,0,-2,-4,0,0,-6,-1,2020-10-19 09:59:07.601
-2,-1,-4,-1,1,3,0,1,2020-10-19 09:59:07.640
2,-2,-3,-1,2,-3,2,0,2020-10-19 09:59:07.682
-1,2,0,9,13,6,-5,-1,2020-10-19 09:59:07.719
-3,-2,13,17,3,2,5,4,2020-10-19 09:59:07.759
-1,1,4,50,7,-1,-10,-8,2020-10-19 09:59:07.796
2,-1,0,2,-1,-4,-4,-1,2020-10-19 09:59:07.837
1,-1,0,-54,-1,1,2,87,2020-10-19 09:59:07.881
116,28,57,-9,-122,-119,-74,93,2020-10-19 09:59:07.919
-128,-128,-114,-93,-125,108,127,-117,2020-10-19 09:59:07.962
127,79,114,108,120,-11,-114,127,2020-10-19 09:59:08.001
-27,-19,-38,-43,-120,-43,21,58,2020-10-19 09:59:08.043
-8,1,-7,-23,127,7,-6,-22,2020-10-19 09:59:08.083
-6,-1,-9,5,38,2,3,-8,2020-10-19 09:59:08.122
-3,-4,-9,-2,-94,7,3,2,2020-10-19 09:59:08.163
-2,-2,-4,-12,-28,-4,0,1,2020-10-19 09:59:08.202
-3,1,2,6,32,-2,-4,-3,2020-10-19 09:59:08.249
-1,2,-7,-5,-2,3,1,-3,2020-10-19 09:59:08.288
2,1,1,13,-3,6,3,0,2020-10-19 09:59:08.328
-2,-4,-4,-4,1,-1,-4,-2,2020-10-19 09:59:08.368
-1,-4,-4,-9,-5,-23,-8,2,2020-10-19 09:59:08.407
-1,0,-1,-3,0,7,7,3,2020-10-19 09:59:08.447
4,5,-6,0,-16,0,-4,-7,2020-10-19 09:59:08.484
-3,-10,5,-8,2,-4,-5,0,2020-10-19 09:59:08.523
0,-2,-2,1,4,-1,-3,-2,2020-10-19 09:59:08.564
-2,-1,0,2,-9,-7,-4,-4,2020-10-19 09:59:08.604
-3,-2,-2,-10,5,-3,-6,-3,2020-10-19 09:59:08.646
-2,-3,-8,-5,8,-10,-6,-2,2020-10-19 09:59:08.687
0,0,-9,-8,6,-8,-6,-4,2020-10-19 09:59:08.727
-3,-3,-5,-11,1,-9,-9,-1,2020-10-19 09:59:08.766
1,4,1,-4,-5,-2,-5,-5,2020-10-19 09:59:08.804
0,-3,3,-2,-1,-1,-3,-2,2020-10-19 09:59:08.847
-2,-4,-13,-6,6,10,9,5,2020-10-19 09:59:08.889
-3,-2,0,4,1,-12,-8,-1,2020-10-19 09:59:08.929
-2,4,7,9,1,7,2,1,2020-10-19 09:59:08.968
-1,-1,-6,-13,10,-3,-6,-3,2020-10-19 09:59:09.011
-1,-2,-1,6,-7,-5,-2,0,2020-10-19 09:59:09.052
-4,-7,-1,13,-5,-5,2,2,2020-10-19 09:59:09.090
1,0,-9,-21,10,-6,-8,-10,2020-10-19 09:59:09.131
3,1,0,7,10,3,3,3,2020-10-19 09:59:09.169
0,-2,-1,-4,-3,3,-1,2,2020-10-19 09:59:09.210
2,0,-12,-13,-6,-14,-10,-4,2020-10-19 09:59:09.252
-9,-6,-16,-1,-11,-7,-9,-8,2020-10-19 09:59:09.289
0,0,5,-4,-5,-6,-2,-4,2020-10-19 09:59:09.329
-1,-2,-9,-10,8,3,0,0,2020-10-19 09:59:09.370
0,1,14,0,-4,-1,1,1,2020-10-19 09:59:09.411
1,0,4,-2,7,6,-2,-2,2020-10-19 09:59:09.450
2,0,12,3,-18,7,4,0,2020-10-19 09:59:09.488
-3,2,12,-2,3,-3,-4,-3,2020-10-19 09:59:09.529
0,0,-1,-13,2,-10,-5,-5,2020-10-19 09:59:09.570
4,3,1,-9,-3,-1,3,1,2020-10-19 09:59:09.612
-1,-4,-16,-6,-5,-2,-1,-3,2020-10-19 09:59:09.652
1,-1,-7,0,-2,-1,-33,-7,2020-10-19 09:59:09.691
6,5,11,8,8,16,21,9,2020-10-19 09:59:09.731
-1,-3,4,-3,1,11,11,0,2020-10-19 09:59:09.770
0,-2,-12,-9,-2,-12,-14,-15,2020-10-19 09:59:09.807
8,1,-6,-16,-2,-5,12,8,2020-10-19 09:59:09.848
-3,-3,-3,4,3,11,-2,-5,2020-10-19 09:59:09.887
-5,-1,10,-3,-6,-16,-13,-6,2020-10-19 09:59:09.928
2,2,8,7,-7,-3,2,-16,2020-10-19 09:59:09.966
-10,-6,-6,-6,0,7,2,15,2020-10-19 09:59:10.003
6,0,-5,-10,0,2,-1,-2,2020-10-19 09:59:10.045
3,2,-4,-6,-1,-1,6,7,2020-10-19 09:59:10.085
6,3,2,5,0,4,3,2,2020-10-19 09:59:10.122
5,-5,9,2,-3,2,-1,0,2020-10-19 09:59:10.162
0,4,7,-3,-5,7,5,1,2020-10-19 09:59:10.202
7,-1,3,8,7,12,7,7,2020-10-19 09:59:10.240
3,4,0,-5,-2,14,-2,-4,2020-10-19 09:59:10.278
-1,-1,5,-6,19,-4,-2,5,2020-10-19 09:59:10.318
4,2,-2,0,-14,1,-2,1,2020-10-19 09:59:10.357
-2,-5,-5,-6,11,-4,-1,0,2020-10-19 09:59:10.399
5,7,-3,9,18,22,8,2,2020-10-19 09:59:10.438
0,-4,-11,-5,-5,-7,-1,-2,2020-10-19 09:59:10.478
-3,0,-4,9,4,7,-1,-1,2020-10-19 09:59:10.517
2,5,-63,52,7,-10,-18,-13,2020-10-19 09:59:10.556
-5,-8,31,-90,17,4,-27,-35,2020-10-19 09:59:10.594
-20,115,-46,-31,127,-104,-16,-95,2020-10-19 09:59:10.635
64,-58,-93,-103,-128,46,127,65,2020-10-19 09:59:10.678
15,-94,-64,-38,-44,9,70,124,2020-10-19 09:59:10.716
-6,91,119,14,44,-53,-128,-128,2020-10-19 09:59:10.754
-4,6,48,93,55,0,-66,-15,2020-10-19 09:59:10.795
0,3,-8,5,4,6,6,14,2020-10-19 09:59:10.832
-2,2,3,-7,-1,0,9,9,2020-10-19 09:59:10.872
1,4,-2,-3,3,3,-3,-3,2020-10-19 09:59:10.910
-1,6,3,-7,-1,8,-5,-10,2020-10-19 09:59:10.950
3,2,-1,2,-8,-4,2,-1,2020-10-19 09:59:10.988
-2,2,6,23,-6,-11,-8,-11,2020-10-19 09:59:11.028
3,1,-4,-17,-3,1,0,2,2020-10-19 09:59:11.070
0,-3,-1,38,-3,-4,-7,-8,2020-10-19 09:59:11.109
4,2,7,-3,-2,4,8,8,2020-10-19 09:59:11.149
1,0,5,-4,0,-17,-8,-4,2020-10-19 09:59:11.191
-1,-2,0,-4,1,6,1,-1,2020-10-19 09:59:11.230
4,4,2,-3,1,2,2,2,2020-10-19 09:59:11.269
3,5,-2,0,0,6,1,1,2020-10-19 09:59:11.311
-3,-4,-3,0,-14,-29,-7,-4,2020-10-19 09:59:11.351
-2,0,10,-1,1,-1,6,0,2020-10-19 09:59:11.389
1,1,1,-4,-6,17,-4,-3,2020-10-19 09:59:11.429
-3,-3,2,0,-12,-17,-10,-6,2020-10-19 09:59:11.468
-1,3,0,0,3,10,-2,-4,2020-10-19 09:59:11.509
0,0,3,3,-2,4,5,0,2020-10-19 09:59:11.549
1,-2,-3,0,15,11,13,9,2020-10-19 09:59:11.588
2,8,-4,0,3,14,5,2,2020-10-19 09:59:11.627
-1,8,8,4,5,-8,-5,-8,2020-10-19 09:59:11.669
-2,7,-8,-6,4,19,5,2,2020-10-19 09:59:11.711
2,5,26,67,18,-22,-8,-3,2020-10-19 09:59:11.756
0,-1,-36,-128,15,27,1,0,2020-10-19 09:59:11.799
-3,-9,51,96,-24,-6,26,23,2020-10-19 09:59:11.840
-10,-5,115,48,-13,0,3,17,2020-10-19 09:59:11.883
5,4,-31,-114,127,6,-5,8,2020-10-19 09:59:11.929
2,0,-6,11,-100,-13,-7,8,2020-10-19 09:59:11.967
-76,5,2,-39,125,-6,-42,-23,2020-10-19 09:59:12.009
6,1,3,47,13,-16,0,2,2020-10-19 09:59:12.046
7,-1,-25,-1,1,2,-4,78,2020-10-19 09:59:12.085
1,0,7,-55,-4,-1,4,-2,2020-10-19 09:59:12.123
2,11,5,6,-1,-2,-11,-13,2020-10-19 09:59:12.164
1,3,-3,-5,-5,-9,-2,2,2020-10-19 09:59:12.203
-2,9,3,-13,-7,3,4,-4,2020-10-19 09:59:12.241
-2,40,-1,4,-8,3,3,-1,2020-10-19 09:59:12.282
-6,-8,-6,12,2,3,-13,0,2020-10-19 09:59:12.323
-2,0,13,41,-16,-3,-9,-9,2020-10-19 09:59:12.365
1,5,15,-128,-2,26,22,11,2020-10-19 09:59:12.404
3,4,0,105,2,11,15,5,2020-10-19 09:59:12.444
2,9,15,20,2,-5,3,-9,2020-10-19 09:59:12.482
-3,-15,-4,85,16,19,-11,-13,2020-10-19 09:59:12.523
-6,5,-2,110,-20,-19,-6,-12,2020-10-19 09:59:12.563
-97,59,127,-40,54,-100,-128,-115,2020-10-19 09:59:12.604
-48,-128,-68,43,-107,49,62,97,2020-10-19 09:59:12.643
-108,-27,-20,-16,109,8,15,-54,2020-10-19 09:59:12.683
-6,-112,72,112,53,-101,127,126,2020-10-19 09:59:12.721
-44,119,66,63,20,-41,-128,-125,2020-10-19 09:59:12.759
12,5,58,16,13,18,-20,12,2020-10-19 09:59:12.799
3,-7,-3,-9,-9,15,20,14,2020-10-19 09:59:12.841
-4,-3,0,0,-4,-19,-18,-14,2020-10-19 09:59:12.884
0,4,-9,1,-3,-11,-2,-3,2020-10-19 09:59:12.923
12,-8,-12,-3,-22,8,58,46,2020-10-19 09:59:12.967
-4,0,-13,-119,14,-3,-36,-31,2020-10-19 09:59:13.011
5,-2,-20,127,4,7,-6,-1,2020-10-19 09:59:13.050
27,-4,-9,-101,3,19,10,-8,2020-10-19 09:59:13.089
-27,-10,-17,10,4,14,7,43,2020-10-19 09:59:13.130
30,3,15,-113,8,-3,2,-44,2020-10-19 09:59:13.169
-41,-6,-5,6,0,1,3,-22,2020-10-19 09:59:13.209
-13,4,-13,1,2,11,1,8,2020-10-19 09:59:13.251
4,0,13,-15,-8,-9,-8,-7,2020-10-19 09:59:13.291
-1,13,-1,3,5,10,-9,-35,2020-10-19 09:59:13.332
-79,-5,9,2,-1,-1,9,-31,2020-10-19 09:59:13.370
32,-76,10,-31,-11,4,44,10,2020-10-19 09:59:13.409
84,10,9,3,2,-1,-6,68,2020-10-19 09:59:13.450
21,17,-4,-4,-2,-4,3,-19,2020-10-19 09:59:13.490
-15,-13,-1,-2,-2,0,0,12,2020-10-19 09:59:13.529
4,0,-1,-1,-1,-1,1,2,2020-10-19 09:59:13.571
1,-5,-13,0,0,-1,-1,-7,2020-10-19 09:59:13.611
-3,-4,-6,-2,-1,-1,-1,1,2020-10-19 09:59:13.654
0,4,4,-3,1,0,-4,0,2020-10-19 09:59:13.693
6,2,5,4,2,1,0,0,2020-10-19 09:59:13.736
-4,0,3,-14,-11,-6,-8,-8,2020-10-19 09:59:13.775
-2,-2,0,3,0,-2,-1,-4,2020-10-19 09:59:13.818
2,-1,0,-6,-2,-41,-7,0,2020-10-19 09:59:13.860
0,3,2,-6,9,23,3,3,2020-10-19 09:59:13.900
-3,-3,-6,-5,-1,17,-12,-4,2020-10-19 09:59:13.942
-3,-4,-3,-3,16,19,4,-4,2020-10-19 09:59:13.982
1,-1,-3,0,-17,-9,-3,-5,2020-10-19 09:59:14.022
3,2,0,1,6,8,2,3,2020-10-19 09:59:14.061
2,-2,-2,-41,-2,-6,9,2,2020-10-19 09:59:14.102
-3,-1,0,43,2,-21,-35,-10,2020-10-19 09:59:14.141
0,1,0,10,-11,-17,-20,-1,2020-10-19 09:59:14.179
2,1,-3,4,-13,4,25,1,2020-10-19 09:59:14.219
-8,-3,-10,-11,-8,-11,-25,-20,2020-10-19 09:59:14.260
-2,-3,-2,-5,-6,-15,-3,-4,2020-10-19 09:59:14.306
-4,-7,-12,-5,0,3,4,2,2020-10-19 09:59:14.345
0,-3,0,1,0,0,-3,-6,2020-10-19 09:59:14.388
1,-1,-9,-3,-1,10,4,-2,2020-10-19 09:59:14.425
2,1,-2,1,2,27,7,-1,2020-10-19 09:59:14.468
0,1,0,2,-5,-14,-1,-2,2020-10-19 09:59:14.509
2,4,3,4,-7,3,1,3,2020-10-19 09:59:14.551
7,-3,9,15,0,-4,-6,-4,2020-10-19 09:59:14.589
1,-5,-39,-82,-13,-16,-9,1,2020-10-19 09:59:14.633
15,-8,10,-18,6,-7,-4,-34,2020-10-19 09:59:14.671
-11,17,11,16,-2,-5,0,-24,2020-10-19 09:59:14.712
18,2,9,14,12,-1,-19,-112,2020-10-19 09:59:14.753
1,-1,-3,1,5,7,4,-83,2020-10-19 09:59:14.794
-5,-3,-19,-1,7,6,2,7,2020-10-19 09:59:14.835
0,-2,-1,-8,-4,-2,0,7,2020-10-19 09:59:14.876
0,-3,-2,-3,2,4,9,2,2020-10-19 09:59:14.916
0,-2,-3,-4,-1,-1,1,4,2020-10-19 09:59:14.958
2,-4,0,-1,0,-1,-2,0,2020-10-19 09:59:14.995
-2,-2,0,1,-2,-2,2,1,2020-10-19 09:59:15.036
-1,0,-1,3,-10,-14,-4,-4,2020-10-19 09:59:15.074
-4,-1,3,0,-4,-5,-5,-1,2020-10-19 09:59:15.112
0,0,0,-2,-3,-7,-2,1,2020-10-19 09:59:15.152
0,-1,-7,1,-3,-2,-1,1,2020-10-19 09:59:15.193
0,-2,-2,-2,7,4,-1,0,2020-10-19 09:59:15.232
2,0,1,2,-1,-12,0,-1,2020-10-19 09:59:15.271
-3,-4,-2,-2,2,0,5,2,2020-10-19 09:59:15.311
-1,1,1,-2,-5,-18,-8,-3,2020-10-19 09:59:15.349
-3,-1,-1,-4,-5,-9,-3,1,2020-10-19 09:59:15.389
-1,0,1,-2,0,-2,-2,-1,2020-10-19 09:59:15.434
-1,0,2,1,-2,-3,-2,1,2020-10-19 09:59:15.471
0,-3,-20,-1,-2,-3,-2,-1,2020-10-19 09:59:15.509
-3,0,6,3,-5,-8,-6,-4,2020-10-19 09:59:15.550
0,0,2,1,1,-1,-2,-2,2020-10-19 09:59:15.587
-1,0,-1,-1,-4,-5,-3,-1,2020-10-19 09:59:15.630
-3,-4,-3,1,1,5,0,-1,2020-10-19 09:59:15.675
1,0,1,-1,4,-5,2,2,2020-10-19 09:59:15.712
-1,0,8,-3,-6,-9,-3,-2,2020-10-19 09:59:15.752
-2,1,-4,-1,-2,-6,-6,-1,2020-10-19 09:59:15.792
0,-1,-5,-2,9,13,5,1,2020-10-19 09:59:15.834
0,-1,-2,-1,6,4,-2,2,2020-10-19 09:59:15.873
-3,-2,-4,-1,-3,-12,-2,1,2020-10-19 09:59:15.912
1,3,1,0,2,15,8,4,2020-10-19 09:59:15.952
-1,0,-2,-1,2,15,2,-3,2020-10-19 09:59:15.990
-1,-1,0,-3,0,12,-2,-3,2020-10-19 09:59:16.030
-1,2,7,0,2,-4,-1,-2,2020-10-19 09:59:16.071
-1,-1,-4,-1,-4,-7,-3,-3,2020-10-19 09:59:16.109
-1,-2,-2,-2,-2,-8,-2,-4,2020-10-19 09:59:16.150
-1,-2,2,-1,2,-3,-3,-3,2020-10-19 09:59:16.188
-1,-2,-2,-1,4,5,-1,-1,2020-10-19 09:59:16.226
0,-1,0,-1,0,3,-1,-2,2020-10-19 09:59:16.266
-2,1,-1,0,3,0,-3,1,2020-10-19 09:59:16.314
-2,0,2,-1,-4,-2,-5,-1,2020-10-19 09:59:16.352
0,-1,0,-2,1,-1,-3,-1,2020-10-19 09:59:16.390
-2,-2,-2,1,1,1,1,-3,2020-10-19 09:59:16.433
-1,-1,-2,-2,-11,-14,-4,1,2020-10-19 09:59:16.471
-1,-1,-4,-2,-1,2,-1,1,2020-10-19 09:59:16.510
-1,1,-2,-2,9,16,4,-1,2020-10-19 09:59:16.553
-2,-4,-1,0,-1,7,-2,-5,2020-10-19 09:59:16.589
2,10,0,5,33,18,11,10,2020-10-19 09:59:16.628
0,-4,-5,-1,-22,4,4,4,2020-10-19 09:59:16.670
6,6,-2,15,23,5,6,5,2020-10-19 09:59:16.711
0,11,-1,-14,-16,-6,0,-3,2020-10-19 09:59:16.752
-2,-14,-9,-12,-21,-6,-5,-5,2020-10-19 09:59:16.789
-6,-15,-14,-51,-70,-12,-6,-2,2020-10-19 09:59:16.828
-5,-5,8,-2,-10,-12,-13,-14,2020-10-19 09:59:16.869
-3,-6,-9,-49,-36,-12,-5,1,2020-10-19 09:59:16.908
-1,-4,-1,-21,-32,-11,-1,1,2020-10-19 09:59:16.949
5,6,8,26,25,25,15,10,2020-10-19 09:59:16.986
-4,-3,-4,7,-22,-4,-6,-1,2020-10-19 09:59:17.026
1,-3,-4,-1,-46,-7,2,1,2020-10-19 09:59:17.068
1,4,11,62,22,2,-4,-4,2020-10-19 09:59:17.108
3,0,-1,-10,12,5,4,-3,2020-10-19 09:59:17.147
1,-4,8,-12,44,4,10,19,2020-10-19 09:59:17.189
1,-12,-6,-16,-26,-5,-8,-16,2020-10-19 09:59:17.227
-2,-3,-5,-8,-19,0,2,-5,2020-10-19 09:59:17.265
0,3,5,4,-20,2,20,-8,2020-10-19 09:59:17.309
4,-5,-3,3,9,1,0,7,2020-10-19 09:59:17.347
3,-2,-1,1,-2,4,13,-11,2020-10-19 09:59:17.386
8,-4,-4,-3,-3,-2,-8,5,2020-10-19 09:59:17.429
-2,5,8,-5,-3,-1,3,-4,2020-10-19 09:59:17.466
2,1,0,-2,-1,1,-3,-1,2020-10-19 09:59:17.506
4,0,-10,13,-2,-7,-5,4,2020-10-19 09:59:17.546
1,-3,6,-1,0,-1,1,5,2020-10-19 09:59:17.584
-7,0,-15,-10,-3,-4,-7,-1,2020-10-19 09:59:17.625
-6,-7,-28,13,-3,1,18,11,2020-10-19 09:59:17.665
7,-2,110,-7,8,17,15,11,2020-10-19 09:59:17.703
6,-15,-41,-4,2,1,-1,11,2020-10-19 09:59:17.740
5,21,-21,6,5,5,-5,6,2020-10-19 09:59:17.780
-48,-95,-1,-15,1,-5,-11,-7,2020-10-19 09:59:17.820
-20,1,0,-11,-3,-6,7,4,2020-10-19 09:59:17.859
5,-15,-2,-16,-11,-5,0,-1,2020-10-19 09:59:17.899
-11,-35,-8,32,2,56,126,16,2020-10-19 09:59:17.938
18,3,1,17,14,-27,-54,-2,2020-10-19 09:59:17.977
-9,0,-12,6,6,32,6,6,2020-10-19 09:59:18.017
-8,-11,12,-16,-1,13,-13,-14,2020-10-19 09:59:18.057
-2,3,-21,-9,-2,28,6,2,2020-10-19 09:59:18.098
-3,-2,0,4,-45,-35,-10,-6,2020-10-19 09:59:18.140
2,-1,-2,-29,3,-28,-51,-2,2020-10-19 09:59:18.178
-1,-3,-4,4,12,6,6,7,2020-10-19 09:59:18.220
1,1,-1,29,9,17,12,1,2020-10-19 09:59:18.259
0,0,4,-7,-9,28,24,8,2020-10-19 09:59:18.296
-2,2,8,3,-5,-1,-8,-6,2020-10-19 09:59:18.337
-4,-1,5,-3,-4,-13,-19,-9,2020-10-19 09:59:18.375
1,1,-4,2,0,9,3,-1,2020-10-19 09:59:18.416
-10,-1,2,-22,-8,-6,-6,-8,2020-10-19 09:59:18.454
-3,-10,-26,12,11,20,6,2,2020-10-19 09:59:18.491
12,-1,4,14,4,1,-2,2,2020-10-19 09:59:18.528
-53,48,-61,119,-4,-5,-9,-5,2020-10-19 09:59:18.566
80,7,19,-6,15,4,-8,-5,2020-10-19 09:59:18.607
-45,-35,-65,-128,-8,7,127,-71,2020-10-19 09:59:18.648
22,13,19,118,-3,-6,-46,-29,2020-10-19 09:59:18.689
-6,-1,32,-28,-2,3,11,18,2020-10-19 09:59:18.727
-5,2,-6,10,10,-8,-27,-23,2020-10-19 09:59:18.769
1,-4,-7,-20,-6,10,26,24,2020-10-19 09:59:18.808
12,-59,17,-8,-4,5,7,6,2020-10-19 09:59:18.849
13,35,-3,-2,5,10,10,5,2020-10-19 09:59:18.889
11,0,6,50,-10,-2,7,12,2020-10-19 09:59:18.929
1,1,2,-13,-20,-14,-14,-6,2020-10-19 09:59:18.968
6,-6,-16,-17,-1,2,-8,-2,2020-10-19 09:59:19.008
-16,-37,-10,12,6,-13,-10,-3,2020-10-19 09:59:19.049
9,12,24,12,10,16,12,-3,2020-10-19 09:59:19.090
4,-2,-7,-31,-23,-21,-36,0,2020-10-19 09:59:19.127
-1,-5,-39,-45,-7,-14,5,-6,2020-10-19 09:59:19.171
-1,-3,6,-10,0,7,-15,-1,2020-10-19 09:59:19.210
-3,-3,-1,-95,-8,7,2,1,2020-10-19 09:59:19.248
1,-2,-3,106,14,13,15,10,2020-10-19 09:59:19.288
2,2,7,31,7,5,1,-1,2020-10-19 09:59:19.325
-4,-3,-1,-5,0,-12,-8,-4,2020-10-19 09:59:19.364
0,2,0,5,6,6,-1,-7,2020-10-19 09:59:19.404
-2,-4,-2,-7,0,-6,-7,-4,2020-10-19 09:59:19.441
-6,0,2,-4,-1,-2,-2,-2,2020-10-19 09:59:19.479
3,-1,3,6,5,0,-2,1,2020-10-19 09:59:19.519
1,-1,-5,0,3,-1,-4,0,2020-10-19 09:59:19.556
12,12,49,6,5,-11,4,5,2020-10-19 09:59:19.598
-46,13,-43,5,4,-21,-15,-7,2020-10-19 09:59:19.637
-73,-68,13,-38,-13,-1,15,14,2020-10-19 09:59:19.674
60,61,17,31,13,10,-8,-20,2020-10-19 09:59:19.711
-5,3,6,9,-18,-20,5,8,2020-10-19 09:59:19.750
0,-3,2,-15,-14,-8,14,14,2020-10-19 09:59:19.790
-2,4,-2,16,1,-39,-33,-23,2020-10-19 09:59:19.829
-5,-4,5,0,-1,-6,-16,-12,2020-10-19 09:59:19.867
2,4,0,-19,-1,-2,-10,-2,2020-10-19 09:59:19.907
9,2,-2,4,-7,5,7,4,2020-10-19 09:59:19.945
-38,-7,-2,-12,0,-5,-3,-2,2020-10-19 09:59:19.982
0,17,-12,4,-7,-13,-9,-1,2020-10-19 09:59:20.029
-85,-21,19,3,19,13,-37,-20,2020-10-19 09:59:20.067
-39,8,-26,-16,29,69,-31,11,2020-10-19 09:59:20.106
7,17,40,106,-9,-20,2,-11,2020-10-19 09:59:20.144
2,-4,-27,-25,12,-4,4,3,2020-10-19 09:59:20.182
-3,-6,-23,-34,5,1,-26,-1,2020-10-19 09:59:20.222
-8,-7,-7,52,-8,-10,34,-16,2020-10-19 09:59:20.259
-2,6,2,-3,-2,-2,-1,-3,2020-10-19 09:58:22.227
-1,7,5,-1,-5,-4,-2,-1,2020-10-19 09:58:22.277
0,-2,26,3,1,-1,-2,0,2020-10-19 09:58:22.293
-5,-10,1,-6,-7,-9,-4,-2,2020-10-19 09:58:22.310
1,-2,-5,0,5,2,-1,2,2020-10-19 09:58:22.326
1,12,1,0,3,-2,-1,0,2020-10-19 09:58:22.343
0,4,21,-3,-5,-6,-4,-3,2020-10-19 09:58:22.368
-2,-11,-1,10,4,4,1,-2,2020-10-19 09:58:22.377
-3,-4,9,-2,-15,-9,-2,-1,2020-10-19 09:58:22.393
0,6,7,-6,-6,-1,4,0,2020-10-19 09:58:22.410
3,-4,-35,-5,-17,-7,6,1,2020-10-19 09:58:22.427
-6,-13,-9,7,20,-7,-14,-7,2020-10-19 09:58:22.444
-2,-6,-11,-1,1,5,4,0,2020-10-19 09:58:22.461
-1,-7,4,1,5,-4,-6,-1,2020-10-19 09:58:22.477
-2,-1,-2,-1,-9,-10,-4,-1,2020-10-19 09:58:22.493
-3,18,14,-4,-7,-6,-2,0,2020-10-19 09:58:22.511
-1,-2,1,6,16,4,-3,-1,2020-10-19 09:58:22.527
1,-2,-8,-1,-4,-8,-6,-3,2020-10-19 09:58:22.544
1,-2,-8,-1,-4,-8,-6,-3,2020-10-19 09:58:22.561
-2,2,4,-2,-7,-7,-2,1,2020-10-19 09:58:22.577
6,11,15,2,-6,-6,-1,-2,2020-10-19 09:58:22.593
-2,1,15,-1,-5,1,2,0,2020-10-19 09:58:22.610
-3,-7,11,-6,-16,-8,-6,-2,2020-10-19 09:58:22.626
-3,-7,-1,1,0,-10,-6,-1,2020-10-19 09:58:22.644
0,-3,-4,4,6,6,-2,-1,2020-10-19 09:58:22.660
4,3,-5,-2,-3,-1,3,1,2020-10-19 09:58:22.677
3,23,12,0,-9,0,0,2,2020-10-19 09:58:22.694
-5,-4,9,6,8,-3,-2,1,2020-10-19 09:58:22.711
-4,-7,-12,0,3,5,-5,-4,2020-10-19 09:58:22.727
0,10,9,1,-1,-7,0,-2,2020-10-19 09:58:22.744
-1,0,-6,-2,3,-3,-4,0,2020-10-19 09:58:22.761
-2,10,20,0,-6,0,-3,-2,2020-10-19 09:58:22.778
0,-4,-3,-10,-20,-16,-6,-4,2020-10-19 09:58:22.794
11,12,19,8,0,4,4,5,2020-10-19 09:58:22.811
4,-2,-3,5,23,7,6,2,2020-10-19 09:58:22.828
-11,-6,-8,3,9,1,0,-9,2020-10-19 09:58:22.844
2,0,-7,-7,-8,2,0,1,2020-10-19 09:58:22.861
-7,10,2,3,7,3,3,2,2020-10-19 09:58:22.878
5,8,9,4,4,-1,-4,2,2020-10-19 09:58:22.894
-5,-4,-10,-3,2,1,0,-7,2020-10-19 09:58:22.911
-3,-4,-12,-21,-34,-4,0,0,2020-10-19 09:58:22.928
-16,-1,9,0,-4,-3,-2,-10,2020-10-19 09:58:22.944
7,-1,4,-6,1,-3,0,6,2020-10-19 09:58:22.960
1,5,-4,9,21,0,-2,-3,2020-10-19 09:58:22.977
-5,-2,3,3,18,1,0,-5,2020-10-19 09:58:22.993
2,2,2,-7,-16,-1,-2,-2,2020-10-19 09:58:23.011
-2,-2,5,3,-6,0,-3,-3,2020-10-19 09:58:23.028
-4,-11,-9,1,-7,-6,-4,-4,2020-10-19 09:58:23.044
6,10,-5,0,13,-7,-1,2,2020-10-19 09:58:23.061
0,-3,2,5,11,-2,0,0,2020-10-19 09:58:23.078
0,-2,-5,-10,-11,-6,1,1,2020-10-19 09:58:23.094
7,-7,-10,-2,-15,-3,-2,-3,2020-10-19 09:58:23.112
-8,-23,-42,-3,11,4,2,-3,2020-10-19 09:58:23.129
1,2,9,-4,-6,1,1,0,2020-10-19 09:58:23.144
-4,-5,-2,-5,-8,-8,-4,-3,2020-10-19 09:58:23.162
4,12,1,-6,-8,3,3,2,2020-10-19 09:58:23.178
0,-6,-6,5,6,2,0,-1,2020-10-19 09:58:23.206
-5,-7,-17,-3,-2,-3,-3,-3,2020-10-19 09:58:23.264
-3,-16,-24,7,17,3,-2,-2,2020-10-19 09:58:23.308
-1,2,5,2,-9,-4,-1,-2,2020-10-19 09:58:23.352
-2,-2,8,-1,10,-4,-3,-2,2020-10-19 09:58:23.392
0,-8,-11,-1,-5,4,4,0,2020-10-19 09:58:23.432
0,1,9,-9,-19,-2,-1,1,2020-10-19 09:58:23.472
-2,2,6,-3,-6,-1,-1,-2,2020-10-19 09:58:23.511
0,0,-1,1,4,2,3,2,2020-10-19 09:58:23.555
0,-4,-8,5,23,8,3,0,2020-10-19 09:58:23.594
-1,-4,0,3,0,-5,-1,2,2020-10-19 09:58:23.631
-3,1,2,-3,-4,-1,-2,-4,2020-10-19 09:58:23.668
-1,-3,-5,-5,-2,-5,-7,-4,2020-10-19 09:58:23.709
3,2,2,2,6,1,6,5,2020-10-19 09:58:23.746
3,5,3,5,15,10,13,4,2020-10-19 09:58:23.783
3,-1,-1,6,4,12,3,4,2020-10-19 09:58:23.823
1,-1,0,-4,3,30,20,3,2020-10-19 09:58:23.861
3,3,8,6,-17,5,7,5,2020-10-19 09:58:23.899
-4,0,-1,0,-15,-25,-9,-4,2020-10-19 09:58:23.935
-1,-1,4,4,9,18,11,2,2020-10-19 09:58:23.974
-1,2,-10,-7,-1,-8,-5,0,2020-10-19 09:58:24.015
1,-7,-28,-18,-6,-2,4,5,2020-10-19 09:58:24.052
3,9,22,20,-12,12,17,4,2020-10-19 09:58:24.091
-3,-8,-2,-22,-4,-14,-6,-3,2020-10-19 09:58:24.130
-1,23,102,10,0,23,-9,-6,2020-10-19 09:58:24.170
-23,-46,-124,-33,-9,-95,-32,-16,2020-10-19 09:58:24.214
25,29,51,37,-16,-9,-40,4,2020-10-19 09:58:24.254
-29,-39,-20,-59,-14,-40,5,-32,2020-10-19 09:58:24.294
-15,-15,-38,-10,-1,-78,-11,-30,2020-10-19 09:58:24.335
36,-12,-34,-16,33,-43,-38,45,2020-10-19 09:58:24.374
97,34,27,38,6,-32,16,40,2020-10-19 09:58:24.411
-22,-3,-73,17,5,-112,15,13,2020-10-19 09:58:24.448
-61,14,17,27,-27,-128,-26,-14,2020-10-19 09:58:24.489
-26,-29,-7,45,5,-68,29,-57,2020-10-19 09:58:24.529
2,-58,44,-10,-72,-64,38,8,2020-10-19 09:58:24.567
40,52,99,21,69,44,-72,39,2020-10-19 09:58:24.610
12,51,59,-37,-28,21,42,27,2020-10-19 09:58:24.648
-67,-75,-3,18,51,-13,-114,-7,2020-10-19 09:58:24.688
-44,50,-85,-45,-33,49,19,-25,2020-10-19 09:58:24.735
70,38,35,-6,20,-19,-12,45,2020-10-19 09:58:24.777
-33,32,10,18,28,-9,13,7,2020-10-19 09:58:24.814
32,24,-50,-74,54,25,-51,30,2020-10-19 09:58:24.851
-7,-23,-67,-36,37,-59,-71,23,2020-10-19 09:58:24.887
-54,-47,-15,81,-48,-98,27,-4,2020-10-19 09:58:24.926
-8,-12,40,-115,16,77,11,35,2020-10-19 09:58:24.965
7,59,68,-61,27,-58,-128,44,2020-10-19 09:58:25.006
-53,-23,28,-27,-7,-49,-88,-34,2020-10-19 09:58:25.043
-8,-23,-10,49,19,-22,-26,-6,2020-10-19 09:58:25.083
-60,-61,19,108,22,-27,119,-2,2020-10-19 09:58:25.123
4,-11,8,33,-36,11,-14,-10,2020-10-19 09:58:25.160
-16,-3,-77,-14,16,81,101,19,2020-10-19 09:58:25.195
30,43,38,-14,-23,80,-83,3,2020-10-19 09:58:25.234
-13,-45,-25,-34,12,-62,-4,15,2020-10-19 09:58:25.273
-3,4,7,10,-7,-41,-32,-12,2020-10-19 09:58:25.310
-1,-10,23,-2,11,26,-23,-14,2020-10-19 09:58:25.349
-1,-37,-22,-4,45,-21,-41,-18,2020-10-19 09:58:25.387
0,17,27,29,24,-6,-3,-7,2020-10-19 09:58:25.427
-6,-4,-28,-9,-36,-29,-6,-16,2020-10-19 09:58:25.466
2,6,8,44,111,20,9,3,2020-10-19 09:58:25.502
-1,-5,-14,-90,-27,-9,-6,1,2020-10-19 09:58:25.540
-1,-5,-1,2,-1,-4,-13,-5,2020-10-19 09:58:25.581
3,3,5,13,-3,-7,6,4,2020-10-19 09:58:25.621
-4,-20,-7,-4,-69,-26,-7,-2,2020-10-19 09:58:25.661
-2,3,-3,2,-13,-4,-9,-4,2020-10-19 09:58:25.700
5,1,2,14,39,12,2,2,2020-10-19 09:58:25.744
5,-37,6,-3,16,-1,5,10,2020-10-19 09:58:25.781
1,4,21,-15,14,-1,-7,-8,2020-10-19 09:58:25.819
7,23,1,-14,18,2,1,5,2020-10-19 09:58:25.858
-5,-13,-9,-28,15,3,-3,5,2020-10-19 09:58:25.896
6,2,-3,-4,1,-3,5,6,2020-10-19 09:58:25.935
-6,-5,-13,-6,-8,-21,-12,-6,2020-10-19 09:58:25.975
-6,0,2,-1,5,-6,-13,-8,2020-10-19 09:58:26.016
-3,-4,-9,39,4,3,-6,3,2020-10-19 09:58:26.056
3,-6,-8,-13,-4,-1,1,0,2020-10-19 09:58:26.096
-7,-20,-4,15,10,-4,-2,-3,2020-10-19 09:58:26.134
-1,3,1,2,-4,-6,-2,-1,2020-10-19 09:58:26.170
-4,-1,-1,16,15,1,-4,-1,2020-10-19 09:58:26.211
1,0,0,-10,-8,-3,-2,0,2020-10-19 09:58:26.251
1,3,5,14,9,-2,0,0,2020-10-19 09:58:26.290
0,1,-1,-1,-3,-2,-2,-1,2020-10-19 09:58:26.327
-1,-2,-3,-19,-18,2,0,-2,2020-10-19 09:58:26.368
-2,1,-2,3,1,-9,-6,-5,2020-10-19 09:58:26.406
-1,-1,-2,-14,-9,-11,-3,0,2020-10-19 09:58:26.442
0,-2,-1,4,-1,4,1,1,2020-10-19 09:58:26.480
7,7,2,2,6,12,6,2,2020-10-19 09:58:26.517
-3,-2,-2,-4,-6,-6,-3,-2,2020-10-19 09:58:26.558
-1,-1,-5,-17,-8,-3,-2,-3,2020-10-19 09:58:26.597
-2,0,0,-8,-2,0,2,1,2020-10-19 09:58:26.635
-1,-2,-2,-8,-3,1,0,-2,2020-10-19 09:58:26.673
-4,-2,-4,-11,-8,0,0,-2,2020-10-19 09:58:26.712
0,-1,0,-5,1,1,1,0,2020-10-19 09:58:26.752
-9,-4,-1,-1,-3,-4,-3,-3,2020-10-19 09:58:26.792
0,1,0,-1,2,1,-1,-1,2020-10-19 09:58:26.831
2,0,-1,-4,-2,0,-1,1,2020-10-19 09:58:26.869
-6,-3,2,-4,-4,-4,-4,-4,2020-10-19 09:58:26.907
-14,-4,-3,-7,0,1,-1,-2,2020-10-19 09:58:26.944
3,2,0,-1,-2,1,1,-2,2020-10-19 09:58:26.983
0,-2,-1,0,4,0,-1,-1,2020-10-19 09:58:27.026
2,-1,-2,0,-2,0,0,1,2020-10-19 09:58:27.063
-2,-3,-1,-9,-5,2,3,2,2020-10-19 09:58:27.099
-2,0,-1,2,2,-2,1,1,2020-10-19 09:58:27.139
-6,-2,-2,2,2,0,-1,-2,2020-10-19 09:58:27.178
-8,-5,1,0,-1,-1,-3,-3,2020-10-19 09:58:27.221
2,3,-1,-2,-1,-3,-2,-3,2020-10-19 09:58:27.259
2,-3,2,-4,-6,-4,-3,-1,2020-10-19 09:58:27.295
2,-1,1,1,3,-1,-1,0,2020-10-19 09:58:27.334
8,5,7,-7,3,-1,-1,5,2020-10-19 09:58:27.372
2,3,-2,-3,-1,-1,-1,0,2020-10-19 09:58:27.411
0,-10,-10,-8,-3,-2,-1,-1,2020-10-19 09:58:27.450
-1,-12,-4,2,1,0,-1,-1,2020-10-19 09:58:27.488
-3,31,15,8,7,3,3,0,2020-10-19 09:58:27.525
-3,-4,-1,1,0,1,0,-1,2020-10-19 09:58:27.567
-3,-10,-3,-1,1,0,0,-1,2020-10-19 09:58:27.606
1,5,3,1,1,0,3,1,2020-10-19 09:58:27.645
0,-5,-1,3,0,0,0,1,2020-10-19 09:58:27.687
-7,-19,-2,-7,-3,-3,-3,-2,2020-10-19 09:58:27.725
-1,-7,-3,-3,-1,1,-1,-2,2020-10-19 09:58:27.773
-6,-7,-7,-11,8,2,-2,-2,2020-10-19 09:58:27.816
-1,1,7,2,2,-1,-1,-1,2020-10-19 09:58:27.855
-1,-1,3,0,9,2,0,-1,2020-10-19 09:58:27.892
-4,-24,1,6,6,-1,-1,-2,2020-10-19 09:58:27.931
-3,4,-1,-12,-5,-2,-3,-3,2020-10-19 09:58:27.973
0,-10,-5,4,1,-1,2,-2,2020-10-19 09:58:28.011
-2,-5,-4,-2,-3,-1,-3,-1,2020-10-19 09:58:28.049
0,-1,-1,-1,4,-1,-1,-1,2020-10-19 09:58:28.089
-2,0,-2,-16,-5,-1,0,0,2020-10-19 09:58:28.128
-1,-3,-2,-4,-8,-2,-1,-1,2020-10-19 09:58:28.166
-2,-3,-1,-5,-4,-3,-3,-2,2020-10-19 09:58:28.205
-1,-1,-4,-4,-9,1,-1,-3,2020-10-19 09:58:28.243
-2,-2,2,31,17,3,1,1,2020-10-19 09:58:28.281
-1,0,-1,7,5,1,1,-1,2020-10-19 09:58:28.317
0,-2,-1,7,8,4,1,-1,2020-10-19 09:58:28.354
0,-4,-3,-16,-5,1,0,-1,2020-10-19 09:58:28.392
0,4,1,-5,9,1,1,1,2020-10-19 09:58:28.433
0,2,2,10,10,2,-1,-1,2020-10-19 09:58:28.470
-2,-2,-1,2,0,-2,-2,-2,2020-10-19 09:58:28.509
-1,2,2,9,-1,-1,0,0,2020-10-19 09:58:28.548
-1,0,1,0,2,-2,0,-1,2020-10-19 09:58:28.591
0,-1,-1,6,1,-2,-1,1,2020-10-19 09:58:28.632
0,-1,1,-1,-2,-2,0,1,2020-10-19 09:58:28.669
-1,-2,-1,-6,0,-1,0,2,2020-10-19 09:58:28.712
0,0,-1,4,0,-1,-1,-1,2020-10-19 09:58:28.757
3,4,-1,-4,-2,0,-1,0,2020-10-19 09:58:28.799
-2,-1,-2,-3,-3,-3,-1,0,2020-10-19 09:58:28.840
2,-1,0,-2,-5,-1,0,0,2020-10-19 09:58:28.880
-1,-2,-2,-5,0,1,-1,-2,2020-10-19 09:58:28.920
-4,-1,-2,-2,1,-2,-1,-2,2020-10-19 09:58:28.960
-3,-2,0,3,2,0,0,-2,2020-10-19 09:58:28.999
-2,-1,-1,7,4,-1,0,-1,2020-10-19 09:58:29.037
-5,-2,-1,4,1,0,-1,-1,2020-10-19 09:58:29.076
-4,-2,-1,8,1,-1,-1,-2,2020-10-19 09:58:29.115
-7,-5,-3,5,2,-1,-1,-3,2020-10-19 09:58:29.155
1,-2,1,-5,4,-7,-3,-2,2020-10-19 09:58:29.196
1,0,-11,4,54,14,4,1,2020-10-19 09:58:29.234
0,1,-1,1,-12,-1,-1,1,2020-10-19 09:58:29.274
0,-2,-5,0,-2,-4,-3,-1,2020-10-19 09:58:29.313
2,1,0,2,12,9,-3,-1,2020-10-19 09:58:29.354
12,4,3,4,9,18,25,15,2020-10-19 09:58:29.399
8,2,-2,-3,-3,-26,-22,7,2020-10-19 09:58:29.438
-7,1,1,3,1,1,27,-5,2020-10-19 09:58:29.482
-2,-1,-3,2,1,5,0,4,2020-10-19 09:58:29.525
-9,-1,-3,-6,-4,-4,-6,-4,2020-10-19 09:58:29.563
-2,-1,1,21,1,0,-1,-3,2020-10-19 09:58:29.601
-10,7,17,49,30,7,4,-6,2020-10-19 09:58:29.640
-5,-11,-22,18,-14,-10,-5,-7,2020-10-19 09:58:29.678
16,10,11,38,89,97,52,25,2020-10-19 09:58:29.717
12,11,15,34,89,94,59,21,2020-10-19 09:58:29.755
11,9,14,36,60,29,30,13,2020-10-19 09:58:29.795
5,1,-8,-2,-43,6,7,5,2020-10-19 09:58:29.833
-6,22,7,-21,-113,-49,-29,-17,2020-10-19 09:58:29.874
2,4,2,-1,-37,17,9,7,2020-10-19 09:58:29.912
0,2,-1,13,20,-3,2,0,2020-10-19 09:58:29.951
-4,-13,-1,11,24,7,4,0,2020-10-19 09:58:29.994
-2,-7,8,0,-15,8,-1,0,2020-10-19 09:58:30.034
7,5,3,19,88,35,5,4,2020-10-19 09:58:30.073
-1,-6,-20,-19,-50,-3,-4,-1,2020-10-19 09:58:30.112
-6,-8,-9,-33,-2,-9,-12,-9,2020-10-19 09:58:30.151
45,18,19,26,19,36,-45,35,2020-10-19 09:58:30.193
18,-8,-8,-7,-25,-81,-109,57,2020-10-19 09:58:30.233
19,10,13,21,32,113,99,33,2020-10-19 09:58:30.273
-9,4,7,-8,-40,3,26,-18,2020-10-19 09:58:30.312
-15,-4,4,1,19,-17,-13,-20,2020-10-19 09:58:30.352
-6,13,15,7,15,6,7,0,2020-10-19 09:58:30.391
-6,-7,-3,4,-17,-17,-36,-17,2020-10-19 09:58:30.431
-8,2,3,11,-15,-29,-19,-18,2020-10-19 09:58:30.471
-7,-3,-7,-2,19,13,4,16,2020-10-19 09:58:30.511
-34,-18,-14,-15,10,-49,-5,-36,2020-10-19 09:58:30.551
4,2,2,-13,-58,-33,-7,-12,2020-10-19 09:58:30.592
-10,-7,-3,6,-19,-18,-12,-22,2020-10-19 09:58:30.630
-4,-56,-28,-14,-22,-46,-3,-2,2020-10-19 09:58:30.672
2,-26,31,79,52,14,16,2,2020-10-19 09:58:30.709
-12,-34,-18,-4,-11,-27,-9,-4,2020-10-19 09:58:30.747
-13,13,29,-1,3,-3,-24,-16,2020-10-19 09:58:30.788
11,10,7,-55,-18,-26,22,20,2020-10-19 09:58:30.830
-7,-4,7,12,3,-19,-20,-5,2020-10-19 09:58:30.864
34,7,10,-1,0,-7,-7,23,2020-10-19 09:58:30.900
-10,2,4,2,10,3,-2,-6,2020-10-19 09:58:30.938
10,-2,-3,-5,-17,7,-4,3,2020-10-19 09:58:30.974
-7,-2,-1,-5,-36,-18,-7,-6,2020-10-19 09:58:31.011
32,4,-17,-16,-25,-8,-2,11,2020-10-19 09:58:31.048
3,-3,30,72,-17,-10,-8,0,2020-10-19 09:58:31.083
27,20,0,-6,-7,-6,-6,9,2020-10-19 09:58:31.123
3,9,-1,-17,-6,-7,-6,0,2020-10-19 09:58:31.161
0,3,-12,-12,-1,1,1,2,2020-10-19 09:58:31.196
-51,-21,-11,-9,-5,-8,-8,-15,2020-10-19 09:58:31.235
4,-1,2,-2,0,-1,-2,-1,2020-10-19 09:58:31.274
18,16,21,0,-5,-4,-3,5,2020-10-19 09:58:31.310
1,9,-4,-2,0,3,-1,0,2020-10-19 09:58:31.349
3,-16,-9,-2,0,3,-1,-1,2020-10-19 09:58:31.388
15,9,-1,1,3,8,5,6,2020-10-19 09:58:31.427
-7,-6,-14,0,-1,0,-4,0,2020-10-19 09:58:31.464
10,-4,8,-1,-2,-8,-3,1,2020-10-19 09:58:31.502
3,-5,-3,-3,0,-4,-2,-1,2020-10-19 09:58:31.540
0,9,8,1,1,3,-1,2,2020-10-19 09:58:31.579
-1,-5,-5,-5,-6,4,3,-3,2020-10-19 09:58:31.618
1,3,3,20,-30,-39,-16,-6,2020-10-19 09:58:31.661
-10,-11,-6,-8,9,53,23,-5,2020-10-19 09:58:31.707
4,4,2,15,1,-44,5,7,2020-10-19 09:58:31.750
3,2,-1,-14,9,2,-8,2,2020-10-19 09:58:31.787
4,-1,-3,10,3,20,10,4,2020-10-19 09:58:31.830
1,27,25,24,31,13,-2,0,2020-10-19 09:58:31.870
-16,-51,-23,-22,6,-15,-13,-10,2020-10-19 09:58:31.915
5,32,9,15,-9,2,6,6,2020-10-19 09:58:31.951
4,12,7,-19,-70,-11,-3,3,2020-10-19 09:58:31.991
2,11,9,19,31,17,7,3,2020-10-19 09:58:32.025
3,1,3,0,5,4,1,2,2020-10-19 09:58:32.063
-1,2,-1,12,35,10,5,1,2020-10-19 09:58:32.101
1,-7,2,8,40,7,5,2,2020-10-19 09:58:32.141
0,-4,-3,7,4,-4,-8,-4,2020-10-19 09:58:32.181
-3,0,-5,50,1,1,0,1,2020-10-19 09:58:32.218
0,7,1,-38,12,32,-2,-7,2020-10-19 09:58:32.255
-4,-14,-3,-10,-26,-13,-3,-1,2020-10-19 09:58:32.295
-1,-6,-6,-3,-8,-7,-2,1,2020-10-19 09:58:32.330
5,10,8,3,3,-1,-2,0,2020-10-19 09:58:32.367
-1,-3,6,16,12,3,0,2,2020-10-19 09:58:32.403
2,0,4,14,22,2,-1,2,2020-10-19 09:58:32.444
-4,-6,5,11,50,7,1,0,2020-10-19 09:58:32.480
-1,0,2,-4,-9,-5,1,1,2020-10-19 09:58:32.517
0,0,-2,-6,-12,-2,-2,-2,2020-10-19 09:58:32.557
3,-1,0,3,5,3,2,1,2020-10-19 09:58:32.597
0,-1,-5,6,12,2,1,-1,2020-10-19 09:58:32.636
3,-8,-14,-6,-3,4,1,1,2020-10-19 09:58:32.675
-1,1,2,-2,17,0,0,-2,2020-10-19 09:58:32.710
1,-1,6,20,8,7,5,4,2020-10-19 09:58:32.749
2,0,3,7,30,6,2,4,2020-10-19 09:58:32.786
0,0,-4,-2,-52,-10,-9,-5,2020-10-19 09:58:32.825
-60,-71,-27,-6,51,18,-20,-22,2020-10-19 09:58:32.861
127,127,51,19,-3,13,6,39,2020-10-19 09:58:32.898
37,39,-19,-14,12,4,12,14,2020-10-19 09:58:32.934
-44,-89,-47,-29,-18,-2,-20,-78,2020-10-19 09:58:32.974
21,-13,-41,-60,-65,-11,-5,4,2020-10-19 09:58:33.010
-53,-29,14,-5,-24,-13,-13,-22,2020-10-19 09:58:33.050
27,68,15,-16,-7,-19,-15,-3,2020-10-19 09:58:33.085
-89,-88,-2,7,8,5,-2,-14,2020-10-19 09:58:33.124
1,9,5,-2,-14,2,1,0,2020-10-19 09:58:33.160
-17,-7,-5,4,-2,-5,-4,-2,2020-10-19 09:58:33.200
10,11,2,12,6,2,-1,-1,2020-10-19 09:58:33.237
-19,-1,-4,-3,-8,-3,-1,-2,2020-10-19 09:58:33.278
14,-8,-3,-6,2,-1,-2,3,2020-10-19 09:58:33.314
-2,-12,-1,23,16,3,-5,-4,2020-10-19 09:58:33.352
-11,-25,2,11,3,-2,-6,-9,2020-10-19 09:58:33.387
-15,-27,-7,-11,-4,-22,23,-6,2020-10-19 09:58:33.428
30,20,13,20,44,127,107,76,2020-10-19 09:58:33.463
-73,-36,-23,-29,-40,-58,-43,-80,2020-10-19 09:58:33.503
13,13,6,-1,0,-16,-30,-2,2020-10-19 09:58:33.542
-22,6,1,-19,-5,29,23,-2,2020-10-19 09:58:33.582
62,11,13,20,0,-2,-9,22,2020-10-19 09:58:33.618
-1,-56,-5,-4,7,4,-1,13,2020-10-19 09:58:33.658
1,30,1,0,10,9,3,0,2020-10-19 09:58:33.695
-1,10,-18,22,6,-1,-1,-1,2020-10-19 09:58:33.731
2,10,14,-2,10,2,1,3,2020-10-19 09:58:33.769
2,10,-4,58,12,-1,-2,2,2020-10-19 09:58:33.809
-3,-6,4,13,11,6,3,0,2020-10-19 09:58:33.846
43,51,3,-10,52,6,-1,9,2020-10-19 09:58:33.883
-58,-44,-12,11,-36,-37,-7,-20,2020-10-19 09:58:33.920
20,8,-13,-12,-31,-16,-11,-1,2020-10-19 09:58:33.959
16,-19,-13,-4,-5,3,-1,-10,2020-10-19 09:58:34.000
-80,-98,-6,19,3,-2,-3,7,2020-10-19 09:58:34.036
4,-5,-17,-24,14,12,1,1,2020-10-19 09:58:34.073
16,-14,-2,59,7,23,15,8,2020-10-19 09:58:34.111
8,20,13,42,0,42,9,1,2020-10-19 09:58:34.147
23,11,0,-8,-17,-18,-6,0,2020-10-19 09:58:34.184
9,4,1,19,13,3,6,5,2020-10-19 09:58:34.221
-9,-1,-2,-13,3,-16,-16,-8,2020-10-19 09:58:34.260
-3,0,-4,-30,-61,-20,2,1,2020-10-19 09:58:34.298
1,5,10,22,38,8,-7,-3,2020-10-19 09:58:34.334
0,-2,-4,-30,-7,-12,-14,-8,2020-10-19 09:58:34.374
14,24,-16,80,-14,-14,-12,-4,2020-10-19 09:58:34.413
3,-6,-15,10,5,-11,-7,3,2020-10-19 09:58:34.447
-26,-24,-16,-5,-26,-18,-10,-13,2020-10-19 09:58:34.485
-13,-9,-6,-18,-4,4,5,-1,2020-10-19 09:58:34.522
8,7,10,48,-3,14,9,2,2020-10-19 09:58:34.563
-7,-4,-2,-16,-7,-9,-7,-5,2020-10-19 09:58:34.599
-1,14,0,-1,-3,-2,1,-1,2020-10-19 09:58:34.639
0,-3,-1,16,1,-6,-4,-3,2020-10-19 09:58:34.677
4,-1,-21,-11,-2,2,2,4,2020-10-19 09:58:34.715
-4,-6,-10,2,-3,-3,-3,-5,2020-10-19 09:58:34.753
2,1,-2,-3,-7,1,2,1,2020-10-19 09:58:34.794
-2,-6,-2,-15,-11,-1,-2,1,2020-10-19 09:58:34.833
0,-2,-3,-2,4,3,1,2,2020-10-19 09:58:34.878
1,3,3,4,10,-1,-3,0,2020-10-19 09:58:34.918
2,0,1,-6,-6,3,2,1,2020-10-19 09:58:34.957
0,0,0,6,2,1,5,2,2020-10-19 09:58:34.998
-3,-3,-1,-5,-2,-1,-4,-5,2020-10-19 09:58:35.039
0,0,0,-2,-2,-1,-4,-1,2020-10-19 09:58:35.081
0,1,4,-3,0,0,-5,-4,2020-10-19 09:58:35.123
3,-2,-5,-2,-1,-5,-2,1,2020-10-19 09:58:35.165
-3,-3,-66,-13,-1,-1,-6,-8,2020-10-19 09:58:35.206
-1,44,67,81,5,15,3,-9,2020-10-19 09:58:35.249
84,-24,-68,-40,-66,-3,10,-7,2020-10-19 09:58:35.290
-57,-75,-50,44,-28,44,31,-5,2020-10-19 09:58:35.329
-4,2,113,19,11,8,-6,-6,2020-10-19 09:58:35.369
100,99,68,-62,4,18,16,21,2020-10-19 09:58:35.408
-12,-10,-97,-44,-4,1,-8,-9,2020-10-19 09:58:35.448
-5,-29,10,22,-2,14,1,-2,2020-10-19 09:58:35.484
5,-8,-83,-54,-34,-3,-1,-6,2020-10-19 09:58:35.521
41,53,115,-63,-9,7,4,4,2020-10-19 09:58:35.558
-35,-22,70,-44,-16,-15,-5,-6,2020-10-19 09:58:35.598
-4,-28,-4,41,-28,-37,-1,-3,2020-10-19 09:58:35.634
27,-7,-87,17,7,33,10,3,2020-10-19 09:58:35.671
29,23,25,-5,3,-5,3,6,2020-10-19 09:58:35.710
79,35,12,1,2,-1,-12,-4,2020-10-19 09:58:35.749
-7,17,23,-3,2,1,-1,-3,2020-10-19 09:58:35.784
7,8,10,-9,5,-2,-3,1,2020-10-19 09:58:35.822
-35,-65,-116,-24,-8,31,10,-5,2020-10-19 09:58:35.858
29,19,27,18,5,-11,3,7,2020-10-19 09:58:35.896
-42,-7,15,-4,5,-5,7,1,2020-10-19 09:58:35.931
-21,-15,-54,-8,-5,1,1,-1,2020-10-19 09:58:35.967
16,5,20,-9,0,-19,-7,-1,2020-10-19 09:58:36.004
-30,-24,-5,-13,-12,-23,-7,-5,2020-10-19 09:58:36.043
13,19,39,18,12,3,2,5,2020-10-19 09:58:36.079
28,28,1,5,10,0,7,4,2020-10-19 09:58:36.116
12,-22,-49,43,2,-6,-9,-3,2020-10-19 09:58:36.153
9,1,30,16,6,8,-2,1,2020-10-19 09:58:36.193
3,1,-39,-11,3,22,4,3,2020-10-19 09:58:36.232
-18,0,90,-6,-11,-9,-9,-8,2020-10-19 09:58:36.273
10,29,26,1,2,-12,4,5,2020-10-19 09:58:36.312
21,10,-36,-5,3,21,-1,8,2020-10-19 09:58:36.351
-8,-32,-70,-22,11,10,2,1,2020-10-19 09:58:36.387
-22,-36,-42,-1,-15,-16,-2,-9,2020-10-19 09:58:36.426
24,33,66,1,3,0,-11,-4,2020-10-19 09:58:36.463
-9,-20,-27,-28,-8,0,-7,0,2020-10-19 09:58:36.501
13,2,-128,5,6,20,10,3,2020-10-19 09:58:36.537
20,16,-1,61,-3,-3,6,9,2020-10-19 09:58:36.575
-18,-8,-53,33,-10,-31,-4,-5,2020-10-19 09:58:36.614
-18,-24,-28,0,3,4,1,-3,2020-10-19 09:58:36.652
-5,-5,17,-32,-8,-4,-9,0,2020-10-19 09:58:36.687
-28,-8,9,-17,-6,-24,-6,-8,2020-10-19 09:58:36.727
-18,-15,59,10,6,17,2,3,2020-10-19 09:58:36.763
-32,-19,63,30,5,-1,-2,-7,2020-10-19 09:58:36.802
-13,1,-14,19,0,15,7,5,2020-10-19 09:58:36.840
-35,-7,0,-18,-10,-7,9,-2,2020-10-19 09:58:36.879
44,35,70,14,5,4,-5,-2,2020-10-19 09:58:36.915
-1,-2,31,9,-9,21,15,6,2020-10-19 09:58:36.953
-16,4,-28,43,-18,-51,-8,-3,2020-10-19 09:58:36.989
-2,15,118,56,19,-6,-5,6,2020-10-19 09:58:37.029
6,8,53,6,-16,-16,-1,-1,2020-10-19 09:58:37.066
-14,-14,-37,-20,-4,7,2,-6,2020-10-19 09:58:37.103
6,0,-4,4,5,6,-5,-5,2020-10-19 09:58:37.138
-12,-18,12,12,12,-8,-6,-5,2020-10-19 09:58:37.179
30,18,-5,56,19,10,13,13,2020-10-19 09:58:37.220
-20,4,69,8,-3,-9,-10,-12,2020-10-19 09:58:37.259
-38,-12,31,31,16,31,1,-5,2020-10-19 09:58:37.298
2,-25,20,-18,-13,-4,10,4,2020-10-19 09:58:37.340
-31,-47,-119,-18,1,22,1,-3,2020-10-19 09:58:37.380
3,0,-17,-9,2,-20,-15,-4,2020-10-19 09:58:37.418
-53,-49,-62,2,7,-10,-7,-13,2020-10-19 09:58:37.455
-29,-45,57,37,-6,-17,-8,-9,2020-10-19 09:58:37.498
-9,-27,15,-2,-19,-25,-17,-21,2020-10-19 09:58:37.536
-1,-63,-21,-23,17,9,-11,-18,2020-10-19 09:58:37.576
6,47,127,16,4,54,24,18,2020-10-19 09:58:37.617
27,27,-104,-36,-3,1,-7,4,2020-10-19 09:58:37.655
-16,-21,30,17,-34,-28,10,-2,2020-10-19 09:58:37.690
-10,-22,25,0,-16,-13,4,-1,2020-10-19 09:58:37.731
-12,-16,-50,-95,-17,-47,-23,-6,2020-10-19 09:58:37.767
5,21,14,-6,53,21,4,-1,2020-10-19 09:58:37.805
2,1,-6,10,17,18,1,-6,2020-10-19 09:58:37.841
8,16,17,33,48,49,15,4,2020-10-19 09:58:37.880
-8,-7,6,-56,-27,-14,-9,-3,2020-10-19 09:58:37.917
10,51,-10,35,45,-18,-4,0,2020-10-19 09:58:37.953
8,22,8,44,65,10,7,8,2020-10-19 09:58:37.990
5,-4,-3,19,29,1,5,6,2020-10-19 09:58:38.031
2,4,-19,-81,-37,-13,-5,-2,2020-10-19 09:58:38.066
5,8,23,51,72,12,7,3,2020-10-19 09:58:38.105
0,-2,3,16,26,-6,0,-3,2020-10-19 09:58:38.143
-1,0,4,3,-12,5,2,-1,2020-10-19 09:58:38.182
-6,-6,-13,-19,-7,-16,-8,-7,2020-10-19 09:58:38.219
6,6,13,30,31,16,11,9,2020-10-19 09:58:38.255
1,-2,-22,-29,3,-3,0,1,2020-10-19 09:58:38.292
-1,-3,5,-1,7,2,-17,-4,2020-10-19 09:58:38.331
-5,-14,29,-10,-16,5,7,0,2020-10-19 09:58:38.365
-99,-86,-112,-35,-59,-59,-10,-32,2020-10-19 09:58:38.402
-33,-64,-34,-33,20,51,26,7,2020-10-19 09:58:38.438
-52,-22,1,-7,22,18,-17,-21,2020-10-19 09:58:38.475
-33,-17,-31,-15,-75,6,-2,-12,2020-10-19 09:58:38.514
32,15,-10,1,24,44,25,13,2020-10-19 09:58:38.553
24,0,-77,5,-7,-33,-10,5,2020-10-19 09:58:38.589
-19,-19,-70,25,-11,-17,-5,-16,2020-10-19 09:58:38.628
45,64,74,-19,-46,103,18,-1,2020-10-19 09:58:38.665
3,-9,-75,-7,16,41,19,3,2020-10-19 09:58:38.703
-58,-22,-8,17,21,-108,-33,-17,2020-10-19 09:58:38.739
-11,-39,-8,29,40,14,1,-1,2020-10-19 09:58:38.779
0,14,25,2,-8,-3,-3,-7,2020-10-19 09:58:38.818
-1,16,-78,4,-38,59,29,2,2020-10-19 09:58:38.854
1,-2,27,-25,-52,-33,-28,-34,2020-10-19 09:58:38.892
-46,-57,-44,23,29,-8,2,5,2020-10-19 09:58:38.931
-7,-5,-28,-30,-19,3,14,35,2020-10-19 09:58:38.968
1,-1,-17,-1,26,-6,-11,-16,2020-10-19 09:58:39.011
-1,10,4,8,9,-18,-10,-10,2020-10-19 09:58:39.051
2,-3,-4,-7,-7,-11,-6,-2,2020-10-19 09:58:39.087
-2,-4,-2,1,9,9,3,2,2020-10-19 09:58:39.124
4,2,4,3,4,6,7,4,2020-10-19 09:58:39.164
1,1,-2,-11,-9,1,1,1,2020-10-19 09:58:39.199
-5,-2,-2,5,-2,-6,-6,-11,2020-10-19 09:58:39.237
-1,-8,-18,-1,-2,0,1,1,2020-10-19 09:58:39.272
-2,-4,-3,-10,0,-4,-2,2,2020-10-19 09:58:39.312
-6,-4,-1,-1,4,1,2,-9,2020-10-19 09:58:39.351
6,3,0,4,2,1,1,2,2020-10-19 09:58:39.388
-2,-1,1,2,0,-7,-3,-2,2020-10-19 09:58:39.424
2,-2,1,2,10,3,-1,0,2020-10-19 09:58:39.466
-1,0,-1,-1,-5,-5,-3,-1,2020-10-19 09:58:39.503
0,2,4,3,2,4,2,1,2020-10-19 09:58:39.538
-1,-5,-5,-10,-17,-8,-3,0,2020-10-19 09:58:39.574
-6,-20,-48,-27,-17,0,-1,0,2020-10-19 09:58:39.618
-44,3,-21,-26,-7,-20,-2,-3,2020-10-19 09:58:39.663
-40,-59,-75,10,34,3,-1,-13,2020-10-19 09:58:39.700
-34,-9,13,-8,5,15,0,-7,2020-10-19 09:58:39.736
47,30,80,-11,-23,47,24,12,2020-10-19 09:58:39.779
20,27,-6,10,0,-2,18,13,2020-10-19 09:58:39.820
12,10,71,-8,-22,-11,-5,-3,2020-10-19 09:58:39.858
20,30,14,6,11,-6,6,14,2020-10-19 09:58:39.898
-56,-53,-82,-14,53,-44,-19,-14,2020-10-19 09:58:39.937
33,58,44,-13,-13,15,2,10,2020-10-19 09:58:39.974
-4,-13,-11,-13,-53,17,3,-5,2020-10-19 09:58:40.014
55,25,-21,-1,9,-1,5,13,2020-10-19 09:58:40.049
13,17,-75,0,9,6,2,7,2020-10-19 09:58:40.087
11,-9,-12,-8,13,5,7,19,2020-10-19 09:58:40.123
-18,-11,2,-3,17,3,-3,-5,2020-10-19 09:58:40.162
0,4,-1,-11,-35,-3,-3,-9,2020-10-19 09:58:40.199
2,-3,-2,-1,0,0,-2,0,2020-10-19 09:58:40.237
-3,13,9,1,1,2,0,0,2020-10-19 09:58:40.272
-6,-6,-4,8,12,-3,-2,-7,2020-10-19 09:58:40.312
-3,-3,-6,8,-8,7,2,-2,2020-10-19 09:58:40.350
1,0,-1,2,-7,-2,-2,0,2020-10-19 09:58:40.387
-1,-3,-3,-1,-1,-3,-3,-3,2020-10-19 09:58:40.424
-1,1,4,-4,1,0,-2,-1,2020-10-19 09:58:40.462
1,-3,1,0,7,2,1,2,2020-10-19 09:58:40.500
2,2,1,4,5,1,0,1,2020-10-19 09:58:40.539
0,-2,-1,-2,1,3,0,-1,2020-10-19 09:58:40.575
-2,-2,-2,-2,1,-1,-2,-3,2020-10-19 09:58:40.616
1,1,0,3,-1,2,3,3,2020-10-19 09:58:40.653
-4,-4,-7,0,-2,-3,-4,-3,2020-10-19 09:58:40.693
1,-1,-3,-7,-4,0,1,-1,2020-10-19 09:58:40.730
-1,-9,-39,-4,-11,-17,-7,-3,2020-10-19 09:58:40.768
8,-9,-3,-9,0,-38,-16,4,2020-10-19 09:58:40.806
-56,-84,-25,32,52,69,-31,-22,2020-10-19 09:58:40.843
-20,66,44,-13,38,15,10,-3,2020-10-19 09:58:40.881
59,7,-24,-25,6,0,9,9,2020-10-19 09:58:40.919
-26,-11,54,-9,-33,-5,2,1,2020-10-19 09:58:40.959
46,31,14,-4,4,-20,-3,6,2020-10-19 09:58:40.994
11,14,60,19,-10,1,3,1,2020-10-19 09:58:41.034
37,62,16,15,6,0,2,5,2020-10-19 09:58:41.071
-17,-17,1,21,-41,-14,-7,-9,2020-10-19 09:58:41.108
-86,-83,-9,7,-2,-15,-8,-25,2020-10-19 09:58:41.145
127,127,-25,21,5,23,14,31,2020-10-19 09:58:41.185
21,-15,-36,8,-13,2,7,10,2020-10-19 09:58:41.223
51,32,-4,-1,-40,-2,4,4,2020-10-19 09:58:41.260
-12,-33,37,24,12,-18,-6,-7,2020-10-19 09:58:41.299
0,-18,-86,9,-28,10,5,-3,2020-10-19 09:58:41.336
43,72,69,-7,30,48,8,9,2020-10-19 09:58:41.372
123,71,-11,-3,-10,-8,1,20,2020-10-19 09:58:41.410
73,19,-13,3,2,-6,-6,9,2020-10-19 09:58:41.449
64,79,61,-27,28,77,25,15,2020-10-19 09:58:41.488
15,-5,57,-2,10,12,-4,-6,2020-10-19 09:58:41.524
-7,3,-4,6,15,11,4,1,2020-10-19 09:58:41.561
-11,-11,-9,-2,5,6,1,-2,2020-10-19 09:58:41.599
-7,-2,5,6,-4,0,2,-1,2020-10-19 09:58:41.639
-3,4,15,5,-1,-1,0,-1,2020-10-19 09:58:41.678
4,13,7,11,34,8,4,5,2020-10-19 09:58:41.719
-2,6,-2,14,7,-2,-4,-3,2020-10-19 09:58:41.759
-6,-11,-11,1,59,-4,-5,-3,2020-10-19 09:58:41.803
-2,-3,-10,6,-1,-2,-2,0,2020-10-19 09:58:41.840
0,0,4,-1,15,1,-1,1,2020-10-19 09:58:41.885
0,2,3,9,25,4,-1,2,2020-10-19 09:58:41.924
-1,0,1,-3,4,9,1,0,2020-10-19 09:58:41.962
1,9,-3,5,48,3,-1,-1,2020-10-19 09:58:42.000
-4,-10,-3,1,-5,-5,-1,-1,2020-10-19 09:58:42.043
0,-1,-1,-4,-4,0,-2,-3,2020-10-19 09:58:42.084
1,1,2,5,0,-2,-1,0,2020-10-19 09:58:42.122
-1,0,4,4,5,0,-1,-1,2020-10-19 09:58:42.158
-1,-1,0,11,-2,1,1,0,2020-10-19 09:58:42.195
1,0,1,-5,-17,4,4,0,2020-10-19 09:58:42.233
1,-1,1,3,2,0,0,1,2020-10-19 09:58:42.269
3,1,0,0,2,1,1,3,2020-10-19 09:58:42.307
2,0,0,-8,-8,0,0,0,2020-10-19 09:58:42.344
0,0,1,0,9,3,1,1,2020-10-19 09:58:42.383
-1,-1,-3,4,3,1,-1,1,2020-10-19 09:58:42.423
-1,-1,-2,0,2,-2,-1,0,2020-10-19 09:58:42.457
-2,-5,-9,-7,-5,-4,-2,-1,2020-10-19 09:58:42.495
0,9,-6,-7,-14,-1,2,3,2020-10-19 09:58:42.534
8,2,7,8,13,8,6,6,2020-10-19 09:58:42.573
-5,4,-27,-20,32,27,1,0,2020-10-19 09:58:42.611
26,26,-15,-25,26,-36,-10,8,2020-10-19 09:58:42.654
4,4,48,-11,23,-3,-11,-7,2020-10-19 09:58:42.694
-31,-19,-30,4,-11,-36,-9,-9,2020-10-19 09:58:42.734
-57,-6,47,-13,-4,-1,-3,-12,2020-10-19 09:58:42.770
-27,-17,37,-4,21,-27,-11,-4,2020-10-19 09:58:42.809
-4,-27,-98,15,-20,20,6,2,2020-10-19 09:58:42.845
-17,-16,-76,-20,11,19,2,3,2020-10-19 09:58:42.885
22,-6,14,-14,27,-6,5,8,2020-10-19 09:58:42.922
54,31,40,-6,-4,18,7,6,2020-10-19 09:58:42.962
3,12,71,18,13,13,6,4,2020-10-19 09:58:43.000
-55,-37,-96,39,2,-16,2,-6,2020-10-19 09:58:43.039
-75,-6,41,-6,26,4,-1,-10,2020-10-19 09:58:43.075
-11,-13,-98,-11,-5,13,9,6,2020-10-19 09:58:43.115
-6,16,-13,-1,-4,22,7,4,2020-10-19 09:58:43.153
-4,-16,-98,-2,-17,-8,-5,-3,2020-10-19 09:58:43.190
-6,-31,-34,-29,3,-30,-6,4,2020-10-19 09:58:43.227
-74,-48,-73,24,-52,27,-16,-54,2020-10-19 09:58:43.267
-30,-19,-32,21,1,-12,-8,-9,2020-10-19 09:58:43.306
-64,-46,-65,21,-6,-13,-7,-13,2020-10-19 09:58:43.342
-16,-1,125,27,-35,2,-2,-8,2020-10-19 09:58:43.377
17,10,0,20,-19,-36,-3,1,2020-10-19 09:58:43.415
-19,0,34,-8,-10,-3,-2,-5,2020-10-19 09:58:43.451
4,1,-15,-20,-9,-26,-9,-2,2020-10-19 09:58:43.489
-2,-1,2,2,8,-6,-2,-1,2020-10-19 09:58:43.524
4,6,7,-4,7,-3,-1,2,2020-10-19 09:58:43.562
-2,-15,-18,3,-13,-6,-1,0,2020-10-19 09:58:43.598
-2,1,-10,-8,-26,-6,-3,-2,2020-10-19 09:58:43.638
-3,9,10,-14,-30,-8,-5,-4,2020-10-19 09:58:43.674
-2,3,3,-7,-10,1,1,0,2020-10-19 09:58:43.712
1,0,12,9,6,2,-1,2,2020-10-19 09:58:43.750
-4,4,1,13,13,-1,-4,-3,2020-10-19 09:58:43.789
-2,0,-5,4,2,-3,-2,-2,2020-10-19 09:58:43.825
0,-1,3,19,13,6,2,0,2020-10-19 09:58:43.864
1,1,1,-2,5,-1,-1,0,2020-10-19 09:58:43.903
-2,11,4,-10,-17,-1,-2,-2,2020-10-19 09:58:43.942
-3,-5,-11,-7,-7,-1,-3,-2,2020-10-19 09:58:43.978
0,-1,-4,9,-71,-25,-4,0,2020-10-19 09:58:44.019
0,1,4,6,14,10,3,0,2020-10-19 09:58:44.056
0,-6,-4,-3,6,1,2,0,2020-10-19 09:58:44.092
2,-1,4,10,8,5,4,2,2020-10-19 09:58:44.128
0,0,3,3,3,0,-1,-2,2020-10-19 09:58:44.168
-3,-8,-1,-2,14,2,-4,-1,2020-10-19 09:58:44.206
-1,5,-1,-9,-7,-3,-2,-1,2020-10-19 09:58:44.244
-3,-4,-1,-11,-27,-3,-2,-2,2020-10-19 09:58:44.280
2,-1,1,5,21,1,3,1,2020-10-19 09:58:44.318
1,2,2,3,-2,6,3,1,2020-10-19 09:58:44.354
-1,0,-1,-8,1,-2,-2,1,2020-10-19 09:58:44.392
-4,-2,-2,-1,1,-2,-2,-1,2020-10-19 09:58:44.430
-1,2,2,2,4,1,0,-1,2020-10-19 09:58:44.469
-2,-2,-3,4,-3,2,1,0,2020-10-19 09:58:44.506
-3,-6,-3,-4,-4,-7,-3,-3,2020-10-19 09:58:44.544
2,2,4,0,7,5,4,1,2020-10-19 09:58:44.583
-3,-3,-1,3,-4,2,0,-2,2020-10-19 09:58:44.622
4,5,9,-1,24,10,8,5,2020-10-19 09:58:44.658
-1,-3,-1,-3,-2,-1,0,2,2020-10-19 09:58:44.696
3,5,3,1,5,-6,-2,2,2020-10-19 09:58:44.730
1,6,-5,-3,-6,-1,0,1,2020-10-19 09:58:44.771
-12,0,4,1,-5,-7,-2,-1,2020-10-19 09:58:44.809
-5,-4,1,10,4,3,3,2,2020-10-19 09:58:44.847
0,1,-1,0,-2,-6,-4,-1,2020-10-19 09:58:44.884
3,1,-2,-6,1,7,2,1,2020-10-19 09:58:44.923
-4,0,-14,-10,-8,0,-3,-2,2020-10-19 09:58:44.961
-2,-5,-5,-1,5,3,1,-1,2020-10-19 09:58:44.997
1,0,-10,-7,-8,0,0,-1,2020-10-19 09:58:45.033
6,-1,10,2,-1,-3,-3,-1,2020-10-19 09:58:45.072
5,2,-5,-6,-6,-2,0,-1,2020-10-19 09:58:45.109
-3,-1,4,3,4,-1,-3,-2,2020-10-19 09:58:45.146
1,-6,-5,-4,0,6,2,0,2020-10-19 09:58:45.185
6,1,-5,-6,-8,-6,0,0,2020-10-19 09:58:45.227
4,-1,7,6,8,6,-1,1,2020-10-19 09:58:45.263
-13,-4,-8,-1,-1,6,0,0,2020-10-19 09:58:45.303
-5,3,-1,-5,1,10,5,3,2020-10-19 09:58:45.338
19,17,-1,-5,1,0,-2,5,2020-10-19 09:58:45.376
32,10,2,0,-1,7,1,3,2020-10-19 09:58:45.410
-5,3,7,5,3,3,-1,-1,2020-10-19 09:58:45.449
-19,-7,6,2,-2,-1,-2,-8,2020-10-19 09:58:45.490
-9,-1,0,1,-5,-10,-1,0,2020-10-19 09:58:45.528
14,5,-5,-5,-3,-7,-6,-2,2020-10-19 09:58:45.563
18,23,17,-7,-4,7,3,3,2020-10-19 09:58:45.602
5,-4,-15,3,-6,21,13,2,2020-10-19 09:58:45.639
5,3,13,6,-4,1,-3,-2,2020-10-19 09:58:45.677
1,2,-19,5,-4,0,0,0,2020-10-19 09:58:45.713
-2,-2,-12,-14,-17,-13,-3,-2,2020-10-19 09:58:45.752
1,6,12,0,8,6,0,-2,2020-10-19 09:58:45.789
9,5,5,3,9,2,1,0,2020-10-19 09:58:45.828
-8,-11,-16,-6,1,-3,2,-4,2020-10-19 09:58:45.866
2,-3,6,-7,0,-6,0,0,2020-10-19 09:58:45.906
-7,-5,1,-11,-4,-13,-6,-4,2020-10-19 09:58:45.941
-7,-4,-14,-9,-1,14,1,-5,2020-10-19 09:58:45.980
-22,-7,6,3,5,-1,2,0,2020-10-19 09:58:46.015
19,20,12,-6,-2,-13,-6,0,2020-10-19 09:58:46.054
13,3,4,-4,2,-5,0,1,2020-10-19 09:58:46.091
2,5,27,5,7,22,4,2,2020-10-19 09:58:46.128
0,-5,-11,-8,-5,-11,0,1,2020-10-19 09:58:46.164
-1,3,7,-1,9,0,-2,0,2020-10-19 09:58:46.204
1,-3,-2,-7,-2,4,3,0,2020-10-19 09:58:46.242
-3,-15,-34,-12,3,-31,-7,-1,2020-10-19 09:58:46.279
0,3,30,9,11,-1,-2,-1,2020-10-19 09:58:46.317
1,-2,13,-6,2,3,-1,-1,2020-10-19 09:58:46.356
6,5,-14,-5,6,-15,-6,1,2020-10-19 09:58:46.394
-2,14,33,-2,-5,-8,-3,-3,2020-10-19 09:58:46.432
-4,-9,-18,-8,-12,4,-2,-4,2020-10-19 09:58:46.470
2,-1,-12,4,8,-6,2,0,2020-10-19 09:58:46.510
-1,-3,-4,-1,16,-5,-3,1,2020-10-19 09:58:46.546
1,-3,-1,-6,-6,-20,-6,-3,2020-10-19 09:58:46.583
-1,2,11,1,-1,2,0,-2,2020-10-19 09:58:46.622
-1,11,22,9,-28,-5,-3,-4,2020-10-19 09:58:46.662
-3,-4,-10,6,10,14,5,0,2020-10-19 09:58:46.697
10,-4,27,-6,-7,-17,-4,0,2020-10-19 09:58:46.737
-2,3,27,4,24,51,56,10,2020-10-19 09:58:46.776
5,12,49,24,19,9,89,33,2020-10-19 09:58:46.812
-2,2,27,26,-10,-3,37,8,2020-10-19 09:58:46.849
24,36,64,4,17,47,-3,7,2020-10-19 09:58:46.890
-2,-11,78,18,7,35,-30,-14,2020-10-19 09:58:46.924
34,17,-14,-7,39,-8,-5,15,2020-10-19 09:58:46.962
-7,-24,26,-16,9,-1,-67,-18,2020-10-19 09:58:46.997
1,-19,-27,14,10,5,-17,1,2020-10-19 09:58:47.040
-10,8,40,-12,-5,-6,-13,-4,2020-10-19 09:58:47.077
-56,-35,-41,-25,23,-54,-53,-23,2020-10-19 09:58:47.112
19,18,28,7,8,86,-12,0,2020-10-19 09:58:47.148
-43,-19,16,0,2,19,1,-7,2020-10-19 09:58:47.184
-4,-9,-49,-13,12,-24,-23,-8,2020-10-19 09:58:47.222
-14,11,33,8,16,65,8,-1,2020-10-19 09:58:47.261
-2,-8,-97,12,-28,2,4,-1,2020-10-19 09:58:47.296
-5,-6,16,-8,22,15,-8,-4,2020-10-19 09:58:47.336
11,13,23,10,23,1,-8,0,2020-10-19 09:58:47.373
-6,-6,-17,-1,-55,-44,-5,-7,2020-10-19 09:58:47.411
10,3,24,-3,11,33,2,4,2020-10-19 09:58:47.448
-13,-4,-40,7,3,-45,-2,0,2020-10-19 09:58:47.490
-8,-11,17,1,14,-36,-8,-2,2020-10-19 09:58:47.529
-2,4,59,-11,-7,85,23,1,2020-10-19 09:58:47.567
21,9,3,-18,1,-1,-1,7,2020-10-19 09:58:47.605
-31,-5,-13,-13,-1,60,23,-4,2020-10-19 09:58:47.644
0,-5,-2,0,-16,20,8,4,2020-10-19 09:58:47.680
-14,-5,-15,0,-21,5,6,0,2020-10-19 09:58:47.719
-6,-11,-50,-3,-1,-42,-13,-3,2020-10-19 09:58:47.757
-14,-5,-10,-3,13,46,16,3,2020-10-19 09:58:47.796
-7,12,55,17,13,2,-8,-9,2020-10-19 09:58:47.832
4,-4,6,6,11,-36,-9,4,2020-10-19 09:58:47.872
2,-4,21,5,13,8,13,7,2020-10-19 09:58:47.909
20,-1,-4,10,10,5,-8,3,2020-10-19 09:58:47.947
-4,-1,-2,-20,-8,-8,0,-7,2020-10-19 09:58:47.986
2,8,5,-1,-9,4,3,-4,2020-10-19 09:58:48.025
16,9,4,-11,6,15,0,15,2020-10-19 09:58:48.063
2,1,-8,14,-9,-17,-18,-4,2020-10-19 09:58:48.101
-22,-11,-6,22,-5,-13,-11,-31,2020-10-19 09:58:48.139
-7,-7,-11,-35,-13,-22,-16,-2,2020-10-19 09:58:48.177
4,7,13,-9,33,73,17,4,2020-10-19 09:58:48.214
-3,-11,19,31,-3,-15,22,5,2020-10-19 09:58:48.257
-1,-10,-1,-3,-1,-1,2,1,2020-10-19 09:58:48.293
3,-5,12,7,-3,21,16,3,2020-10-19 09:58:48.329
-6,5,3,11,-2,-6,-20,-4,2020-10-19 09:58:48.364
-5,3,15,12,0,-16,-24,-8,2020-10-19 09:58:48.403
1,-1,-7,4,3,-4,3,2,2020-10-19 09:58:48.441
0,6,29,21,-11,9,8,2,2020-10-19 09:58:48.480
-1,-5,-6,-25,5,23,6,3,2020-10-19 09:58:48.516
3,1,-21,16,-14,-44,1,4,2020-10-19 09:58:48.555
3,4,7,-2,-3,-4,6,4,2020-10-19 09:58:48.593
-1,0,-4,-12,-5,5,0,-2,2020-10-19 09:58:48.634
-4,-5,-22,-4,8,17,-1,-4,2020-10-19 09:58:48.671
-2,-1,9,26,10,-25,-5,-2,2020-10-19 09:58:48.710
0,-2,-2,0,-6,1,0,0,2020-10-19 09:58:48.747
-2,-2,0,1,6,-4,-2,-2,2020-10-19 09:58:48.785
1,1,2,-26,1,6,4,1,2020-10-19 09:58:48.825
0,-1,-2,-96,-7,0,0,1,2020-10-19 09:58:48.863
-2,-1,-2,32,-10,-1,-3,-3,2020-10-19 09:58:48.902
-1,-1,9,-3,24,6,-4,-2,2020-10-19 09:58:48.945
2,6,-9,-70,-11,-9,4,-2,2020-10-19 09:58:48.982
1,-6,-6,17,7,-7,-4,0,2020-10-19 09:58:49.025
-1,-1,-6,-8,0,-2,-4,0,2020-10-19 09:58:49.062
-9,-11,-17,-72,-36,-7,17,-3,2020-10-19 09:58:49.100
6,8,2,-9,17,52,41,8,2020-10-19 09:58:49.138
-7,1,10,-8,0,-37,-98,-38,2020-10-19 09:58:49.178
8,8,8,1,-1,-32,-5,4,2020-10-19 09:58:49.215
0,-1,3,-18,-2,63,5,7,2020-10-19 09:58:49.254
-2,-2,0,47,10,-6,4,-1,2020-10-19 09:58:49.293
-4,-4,-5,-4,2,-24,-5,-4,2020-10-19 09:58:49.331
1,1,-3,34,-35,-8,-10,1,2020-10-19 09:58:49.366
0,-1,-1,-27,-1,15,-2,-3,2020-10-19 09:58:49.407
1,1,11,-4,2,-55,-5,-1,2020-10-19 09:58:49.443
2,2,4,19,6,-5,5,4,2020-10-19 09:58:49.482
2,3,4,13,0,-31,-4,-1,2020-10-19 09:58:49.519
-3,1,-6,5,-3,31,0,-11,2020-10-19 09:58:49.557
-12,-6,-7,-9,-10,-13,-22,-20,2020-10-19 09:58:49.593
0,-2,-20,9,8,12,4,2,2020-10-19 09:58:49.635
4,2,5,18,35,1,-3,7,2020-10-19 09:58:49.674
-2,-3,-9,40,-13,-28,-11,-4,2020-10-19 09:58:49.712
-7,-1,2,-82,-1,-21,-11,-12,2020-10-19 09:58:49.749
-4,-2,0,-107,-1,1,21,-14,2020-10-19 09:58:49.790
8,-4,-10,-128,0,12,-13,-3,2020-10-19 09:58:49.827
5,-6,4,7,-12,-2,37,39,2020-10-19 09:58:49.867
-1,2,3,14,6,27,25,-54,2020-10-19 09:58:49.906
-19,-7,-9,-4,3,6,-77,-37,2020-10-19 09:58:49.948
12,11,4,2,4,0,-22,23,2020-10-19 09:58:49.984
0,-1,-6,2,3,15,31,17,2020-10-19 09:58:50.034
0,2,-1,0,9,16,13,2,2020-10-19 09:58:50.072
-3,5,1,2,-5,-25,-16,-8,2020-10-19 09:58:50.110
-1,4,12,1,1,8,14,1,2020-10-19 09:58:50.146
-15,-12,-6,-2,-14,-36,-37,-23,2020-10-19 09:58:50.184
1,0,-1,0,5,10,17,2,2020-10-19 09:58:50.222
-9,1,9,1,-9,-22,-23,-18,2020-10-19 09:58:50.260
-1,2,-2,-4,-6,2,-3,-2,2020-10-19 09:58:50.297
-7,4,8,1,-6,-20,-19,-14,2020-10-19 09:58:50.334
-7,0,4,1,-5,-15,-28,-12,2020-10-19 09:58:50.370
0,1,-3,-5,-1,6,7,-1,2020-10-19 09:58:50.411
-4,-5,-3,-2,-11,-14,-8,0,2020-10-19 09:58:50.447
-4,-8,5,8,-1,-17,-13,-7,2020-10-19 09:58:50.486
0,2,3,-12,7,11,3,1,2020-10-19 09:58:50.525
-2,3,4,-83,-2,-8,-9,-8,2020-10-19 09:58:50.563
3,0,0,34,1,1,4,3,2020-10-19 09:58:50.600
-9,-6,-10,18,-19,-92,-34,-12,2020-10-19 09:58:50.641
4,-2,-2,-38,-6,0,4,9,2020-10-19 09:58:50.680
-3,0,4,52,0,9,9,-2,2020-10-19 09:58:50.717
-2,3,-7,22,14,15,4,5,2020-10-19 09:58:50.753
-14,-8,18,-121,-11,-3,-18,-12,2020-10-19 09:58:50.795
-6,93,23,18,-6,-9,4,0,2020-10-19 09:58:50.831
9,94,99,-1,-113,8,-25,-10,2020-10-19 09:58:50.867
-113,-29,-93,50,63,-34,-13,1,2020-10-19 09:58:50.904
86,106,96,-77,91,15,-18,96,2020-10-19 09:58:50.943
-20,-30,14,-11,-47,-64,-29,-128,2020-10-19 09:58:50.979
-18,-116,-66,-3,-70,106,8,127,2020-10-19 09:58:51.017
8,-76,60,-93,-15,39,-13,-128,2020-10-19 09:58:51.056
-1,27,-32,15,-47,-41,-24,-94,2020-10-19 09:58:51.094
3,-23,37,54,34,-40,-15,-128,2020-10-19 09:58:51.131
8,-55,20,-5,11,19,106,-17,2020-10-19 09:58:51.169
-7,85,21,84,12,-51,45,79,2020-10-19 09:58:51.206
-15,12,30,-60,13,28,20,8,2020-10-19 09:58:51.260
28,-126,-108,93,-8,18,-14,8,2020-10-19 09:58:51.306
31,-80,44,52,2,10,-24,-7,2020-10-19 09:58:51.355
36,5,4,127,-25,-10,-47,-120,2020-10-19 09:58:51.405
87,-16,-39,25,3,59,-49,0,2020-10-19 09:58:51.453
8,-17,-94,44,0,-11,4,76,2020-10-19 09:58:51.505
-15,-62,-65,79,-25,14,-22,50,2020-10-19 09:58:51.553
-21,-36,-95,13,-10,18,37,67,2020-10-19 09:58:51.604
126,-33,-68,3,-1,-11,37,35,2020-10-19 09:58:51.654
118,28,27,1,10,6,4,125,2020-10-19 09:58:51.696
-64,-128,12,0,37,-45,45,-77,2020-10-19 09:58:51.744
-6,105,119,-1,-38,79,23,47,2020-10-19 09:58:51.791
-80,-128,-128,-128,36,22,-13,9,2020-10-19 09:58:51.832
21,49,-6,-56,13,-89,-85,-57,2020-10-19 09:58:51.878
2,0,91,-13,-102,53,127,65,2020-10-19 09:58:51.921
-64,6,-109,-5,86,18,34,28,2020-10-19 09:58:51.960
36,4,25,110,35,-85,118,25,2020-10-19 09:58:52.001
-81,30,120,101,-128,-83,-122,-128,2020-10-19 09:58:52.042
-46,-92,-69,-35,-62,-17,-11,-56,2020-10-19 09:58:52.085
-7,-1,25,-27,25,4,31,-14,2020-10-19 09:58:52.123
-39,93,-125,-128,69,3,-57,-128,2020-10-19 09:58:52.164
85,-21,-87,118,45,4,-14,114,2020-10-19 09:58:52.200
76,-16,-115,-45,6,1,-6,127,2020-10-19 09:58:52.240
-7,-3,-7,-128,12,-27,2,-98,2020-10-19 09:58:52.280
78,11,-88,19,48,76,-65,101,2020-10-19 09:58:52.318
-117,20,127,127,-66,-76,-94,-56,2020-10-19 09:58:52.353
-49,-128,95,-91,110,127,127,127,2020-10-19 09:58:52.390
127,103,127,5,-128,-128,-128,-97,2020-10-19 09:58:52.428
-126,127,46,-62,-128,-128,-128,1,2020-10-19 09:58:52.467
124,101,45,-128,92,92,113,78,2020-10-19 09:58:52.504
-116,-76,-73,-41,-119,-121,-128,-106,2020-10-19 09:58:52.543
-29,-11,127,-17,5,11,48,63,2020-10-19 09:58:52.580
-32,22,38,4,-101,-51,-47,-39,2020-10-19 09:58:52.621
7,13,10,-1,9,0,10,-9,2020-10-19 09:58:52.661
14,6,1,1,17,12,23,37,2020-10-19 09:58:52.701
19,-9,-7,9,8,-21,-45,16,2020-10-19 09:58:52.738
7,4,-3,-19,-17,-3,-1,-36,2020-10-19 09:58:52.778
3,8,6,37,23,15,34,7,2020-10-19 09:58:52.817
-6,-1,-2,10,11,3,21,13,2020-10-19 09:58:52.855
3,-7,-12,-30,1,15,52,34,2020-10-19 09:58:52.895
22,6,0,5,9,-3,3,16,2020-10-19 09:58:52.934
5,-7,0,19,8,4,-3,9,2020-10-19 09:58:52.971
5,4,-3,11,0,-3,6,1,2020-10-19 09:58:53.011
3,14,12,11,1,10,-5,0,2020-10-19 09:58:53.048
-2,-10,-8,4,-5,-1,-5,-8,2020-10-19 09:58:53.085
-6,-4,5,-4,14,4,2,-10,2020-10-19 09:58:53.122
1,3,7,-4,-18,-13,-22,-2,2020-10-19 09:58:53.164
2,0,-2,-20,0,1,-12,-2,2020-10-19 09:58:53.201
-5,-12,-7,-13,-2,-12,-13,-6,2020-10-19 09:58:53.241
-3,-6,-14,-33,-30,-7,-12,-4,2020-10-19 09:58:53.278
-3,-7,2,15,3,-1,-9,-6,2020-10-19 09:58:53.320
-1,-2,-6,-2,2,6,29,2,2020-10-19 09:58:53.360
-2,-2,-5,-15,-16,-1,-4,0,2020-10-19 09:58:53.400
-3,-7,-7,-19,-4,-17,-22,-5,2020-10-19 09:58:53.438
-3,-3,-2,13,-4,-12,-15,-5,2020-10-19 09:58:53.478
3,-1,-6,-32,-19,15,33,9,2020-10-19 09:58:53.515
-2,2,-2,-14,-13,3,24,-1,2020-10-19 09:58:53.554
-7,-5,-1,-25,-3,-11,-17,-11,2020-10-19 09:58:53.591
-7,-15,-13,-12,-6,-8,-28,-10,2020-10-19 09:58:53.631
-1,1,-1,1,9,-6,-21,-4,2020-10-19 09:58:53.669
-7,2,11,24,14,-7,-11,-6,2020-10-19 09:58:53.711
1,0,-5,-37,0,-3,-22,-2,2020-10-19 09:58:53.751
7,-5,-9,-24,-22,2,58,20,2020-10-19 09:58:53.789
-1,1,-3,-2,6,-12,-24,-4,2020-10-19 09:58:53.827
-4,-5,-4,9,-7,-12,-12,-5,2020-10-19 09:58:53.869
-2,7,6,11,-7,3,-3,-2,2020-10-19 09:58:53.906
-1,-1,1,6,-3,6,3,-3,2020-10-19 09:58:53.947
-1,-4,-7,-8,-7,3,4,-4,2020-10-19 09:58:53.988
6,12,4,20,8,-2,-18,-21,2020-10-19 09:58:54.030
-2,4,0,-19,0,-7,-3,-7,2020-10-19 09:58:54.069
-2,2,8,-5,-2,8,23,-1,2020-10-19 09:58:54.110
-15,-19,-8,-5,5,-1,-27,-19,2020-10-19 09:58:54.150
-5,1,8,34,22,20,30,8,2020-10-19 09:58:54.189
4,-4,-1,-6,-9,2,17,15,2020-10-19 09:58:54.230
-1,-2,-7,8,2,13,29,0,2020-10-19 09:58:54.270
-5,-8,-6,10,6,-5,-39,-13,2020-10-19 09:58:54.309
-9,2,-2,-36,-18,-4,-35,-7,2020-10-19 09:58:54.351
10,4,1,30,12,7,29,13,2020-10-19 09:58:54.390
6,13,4,-11,-20,-2,22,8,2020-10-19 09:58:54.431
-12,-7,-7,3,-12,-8,-61,-23,2020-10-19 09:58:54.469
-1,-10,-4,2,-9,1,-25,-7,2020-10-19 09:58:54.508
-2,-6,-8,9,2,0,-32,-6,2020-10-19 09:58:54.548
-3,-4,-3,-23,-8,3,17,-4,2020-10-19 09:58:54.587
-5,-1,3,2,8,-3,-17,-13,2020-10-19 09:58:54.626
-11,1,25,3,3,-2,-29,2,2020-10-19 09:58:54.668
-5,-7,7,0,4,-4,13,-8,2020-10-19 09:58:54.706
6,-2,13,-4,-16,-12,-24,-1,2020-10-19 09:58:54.746
-6,-6,-13,-14,-10,-3,-36,-4,2020-10-19 09:58:54.784
-6,-5,-5,-12,5,-2,-7,-19,2020-10-19 09:58:54.825
-7,-6,-1,3,1,5,6,-14,2020-10-19 09:58:54.863
8,6,0,-1,-1,11,40,24,2020-10-19 09:58:54.904
1,-1,-1,-4,-11,1,11,5,2020-10-19 09:58:54.943
-3,-5,1,0,2,-9,-14,-6,2020-10-19 09:58:54.984
-2,3,0,2,7,5,0,-4,2020-10-19 09:58:55.021
-2,2,-2,-1,3,3,4,-4,2020-10-19 09:58:55.061
2,1,-4,0,0,5,2,2,2020-10-19 09:58:55.099
-3,-1,1,4,3,-3,-7,-1,2020-10-19 09:58:55.142
1,0,-4,2,2,-1,-2,0,2020-10-19 09:58:55.179
-3,-3,0,-2,-15,-6,-12,-1,2020-10-19 09:58:55.218
-2,-1,-2,4,3,0,-4,-3,2020-10-19 09:58:55.258
-3,0,3,-2,21,0,-12,-8,2020-10-19 09:58:55.297
-1,-1,3,-1,-32,7,1,-5,2020-10-19 09:58:55.335
-5,1,-12,2,19,-2,-6,-5,2020-10-19 09:58:55.376
-7,5,9,2,19,7,15,6,2020-10-19 09:58:55.416
4,-3,-4,-9,-16,-7,-21,-1,2020-10-19 09:58:55.454
-3,0,-2,0,-2,-8,-9,-13,2020-10-19 09:58:55.495
-2,1,0,10,20,1,-2,-5,2020-10-19 09:58:55.536
-3,-6,0,0,-7,-14,-10,14,2020-10-19 09:58:55.572
-3,0,7,-6,8,11,14,35,2020-10-19 09:58:55.612
-6,-1,1,-7,5,5,1,-16,2020-10-19 09:58:55.652
13,-7,-7,6,-2,13,15,47,2020-10-19 09:58:55.691
42,10,-4,-11,-14,15,60,54,2020-10-19 09:58:55.731
-8,-2,-1,-1,-4,1,-1,-30,2020-10-19 09:58:55.771
-2,-4,0,3,3,4,-9,-59,2020-10-19 09:58:55.806
-15,-8,-3,1,-7,-10,-9,-52,2020-10-19 09:58:55.844
-4,-2,2,4,3,0,5,14,2020-10-19 09:58:55.881
4,6,6,3,11,-1,2,-3,2020-10-19 09:58:55.920
-4,-8,-5,-4,-8,-11,-9,3,2020-10-19 09:58:55.956
0,-25,10,-10,-17,4,10,-4,2020-10-19 09:58:55.996
-11,-24,-9,-1,-32,-4,-11,11,2020-10-19 09:58:56.035
1,3,-7,9,6,2,2,-9,2020-10-19 09:58:56.075
0,-4,0,-1,-5,0,16,-7,2020-10-19 09:58:56.112
-2,1,0,1,1,9,14,3,2020-10-19 09:58:56.153
0,2,1,3,-3,-1,1,1,2020-10-19 09:58:56.187
0,-6,44,-7,-13,-5,-1,-1,2020-10-19 09:58:56.225
-76,-120,35,-108,-101,-57,-52,-15,2020-10-19 09:58:56.264
-78,-109,-115,111,70,-116,-120,-65,2020-10-19 09:58:56.307
-47,-3,41,121,-111,-119,-104,114,2020-10-19 09:58:56.344
72,40,0,127,23,34,-37,15,2020-10-19 09:58:56.383
-1,7,-35,-128,6,17,13,49,2020-10-19 09:58:56.423
95,0,-118,-59,8,-4,-2,10,2020-10-19 09:58:56.465
22,-105,17,81,1,-35,0,-14,2020-10-19 09:58:56.504
7,65,20,-128,-39,-70,-58,1,2020-10-19 09:58:56.542
3,118,-27,-57,58,-62,-52,-81,2020-10-19 09:58:56.581
1,-118,6,4,-79,54,30,34,2020-10-19 09:58:56.621
-111,-121,66,-128,-12,-101,-111,-8,2020-10-19 09:58:56.657
113,108,-4,-5,-105,116,-44,-5,2020-10-19 09:58:56.698
-94,83,-7,17,-7,62,-71,-94,2020-10-19 09:58:56.738
-42,87,127,35,-38,-48,-103,-41,2020-10-19 09:58:56.778
-11,-42,30,9,18,-10,127,-2,2020-10-19 09:58:56.816
-21,11,49,-17,-23,-15,-42,-2,2020-10-19 09:58:56.857
5,-52,-75,1,17,7,0,4,2020-10-19 09:58:56.896
79,32,65,-88,-6,13,7,87,2020-10-19 09:58:56.937
70,10,-4,-56,-10,-4,-28,71,2020-10-19 09:58:56.976
-128,-33,75,127,-35,-15,-18,-119,2020-10-19 09:58:57.017
-90,1,114,-61,-20,-23,-39,-127,2020-10-19 09:58:57.056
55,-32,83,-60,-1,-5,9,43,2020-10-19 09:58:57.097
18,65,42,38,30,-19,-52,-8,2020-10-19 09:58:57.136
33,-8,-81,91,6,12,13,14,2020-10-19 09:58:57.175
-111,-18,24,63,-7,-2,-2,-68,2020-10-19 09:58:57.213
127,8,-38,-28,-33,0,-2,45,2020-10-19 09:58:57.252
-11,29,-66,7,38,-1,3,35,2020-10-19 09:58:57.289
34,-13,-24,58,-5,0,3,2,2020-10-19 09:58:57.330
90,-10,33,-1,-9,-5,-2,-9,2020-10-19 09:58:57.368
54,-24,56,98,-54,-12,-23,-126,2020-10-19 09:58:57.409
-120,54,-25,-8,74,-5,-6,-8,2020-10-19 09:58:57.449
-32,-8,-11,-22,3,1,-5,-3,2020-10-19 09:58:57.486
-95,-9,7,-7,-15,-1,-5,-16,2020-10-19 09:58:57.522
34,5,15,9,51,53,26,50,2020-10-19 09:58:57.560
-24,-2,-5,24,-2,-8,-8,-7,2020-10-19 09:58:57.596
61,-3,-14,4,-23,24,53,-48,2020-10-19 09:58:57.639
15,-3,3,17,-3,31,16,-57,2020-10-19 09:58:57.676
127,41,18,-103,-128,-128,-128,-128,2020-10-19 09:58:57.718
66,2,-6,-16,-23,-18,-22,-63,2020-10-19 09:58:57.756
-23,-6,1,-3,35,32,35,25,2020-10-19 09:58:57.792
115,22,10,-66,-104,-96,-102,-125,2020-10-19 09:58:57.833
73,9,2,-23,-44,-43,-37,-94,2020-10-19 09:58:57.871
14,16,2,-24,-35,-55,-55,-14,2020-10-19 09:58:57.906
44,10,1,-39,-70,-74,-75,-63,2020-10-19 09:58:57.949
33,15,7,-30,-42,-49,-41,-38,2020-10-19 09:58:57.986
-49,-2,-11,24,56,50,52,41,2020-10-19 09:58:58.024
54,0,-3,-23,-27,-12,-28,-67,2020-10-19 09:58:58.060
24,5,6,-10,-32,-34,-31,-41,2020-10-19 09:58:58.099
63,19,31,16,-74,-56,-73,-60,2020-10-19 09:58:58.135
18,-13,0,12,-18,18,1,-20,2020-10-19 09:58:58.174
18,4,1,43,62,80,63,-42,2020-10-19 09:58:58.213
70,11,-5,-18,-13,-27,-65,-15,2020-10-19 09:58:58.253
57,14,7,-59,-61,-45,-39,-35,2020-10-19 09:58:58.289
126,6,-22,-64,55,29,12,45,2020-10-19 09:58:58.328
66,14,-32,-103,77,20,16,75,2020-10-19 09:58:58.368
-2,-12,23,-31,-16,-5,-8,-17,2020-10-19 09:58:58.407
103,-42,24,-18,-17,-4,-7,2,2020-10-19 09:58:58.445
-63,-16,10,-41,10,0,-2,-13,2020-10-19 09:58:58.485
-9,10,31,-128,-38,-10,-6,-47,2020-10-19 09:58:58.522
-88,-9,-32,92,-63,2,-1,13,2020-10-19 09:58:58.560
-83,-24,2,91,-80,-11,-12,-69,2020-10-19 09:58:58.597
-75,-19,-8,76,-128,-14,-9,-100,2020-10-19 09:58:58.638
-128,-13,-1,18,-76,-65,5,-67,2020-10-19 09:58:58.674
-106,-14,-9,28,112,99,-125,-128,2020-10-19 09:58:58.712
-18,15,1,-19,-125,-108,-58,-80,2020-10-19 09:58:58.751
-118,-7,-14,-35,-108,38,12,54,2020-10-19 09:58:58.789
31,-12,-6,67,55,-17,-128,-105,2020-10-19 09:58:58.825
19,36,-46,75,-23,-100,39,-73,2020-10-19 09:58:58.863
-6,-15,-27,-27,16,68,-51,-46,2020-10-19 09:58:58.903
-128,-53,-123,-128,-114,127,-47,-128,2020-10-19 09:58:58.942
127,50,127,127,127,-27,118,127,2020-10-19 09:58:58.979
29,12,31,31,3,12,47,29,2020-10-19 09:58:59.020
92,-21,104,100,54,-101,-75,95,2020-10-19 09:58:59.058
97,44,116,115,-20,-55,4,87,2020-10-19 09:58:59.097
-104,-84,-33,-28,-39,48,103,-84,2020-10-19 09:58:59.137
-125,-72,-128,-128,-116,-19,-84,-128,2020-10-19 09:58:59.176
-97,27,-5,51,92,-36,74,57,2020-10-19 09:58:59.215
70,43,79,61,72,-21,38,63,2020-10-19 09:58:59.257
-106,-38,-128,-109,-69,64,81,-73,2020-10-19 09:58:59.294
82,60,74,89,93,14,20,93,2020-10-19 09:58:59.338
-128,-48,-123,-128,-8,-27,5,-112,2020-10-19 09:58:59.374
-61,37,-51,-46,-73,94,42,-24,2020-10-19 09:58:59.416
2,12,11,41,2,15,-52,-13,2020-10-19 09:58:59.456
35,41,48,53,39,-128,-81,-102,2020-10-19 09:58:59.493
68,78,22,33,38,47,90,82,2020-10-19 09:58:59.529
-12,-13,-33,-25,-8,100,-55,-43,2020-10-19 09:58:59.569
41,99,37,37,-95,-39,44,70,2020-10-19 09:58:59.608
-48,-14,-73,3,54,39,45,-53,2020-10-19 09:58:59.651
32,-2,60,66,-40,-71,-28,7,2020-10-19 09:58:59.690
-17,8,-44,-41,-8,-18,-4,-2,2020-10-19 09:58:59.732
-9,-18,1,-10,8,-5,1,-3,2020-10-19 09:58:59.770
-3,-26,-20,-20,1,4,-5,3,2020-10-19 09:58:59.809
-25,-28,-68,-51,-54,-23,-35,-4,2020-10-19 09:58:59.845
8,14,24,34,20,35,13,-68,2020-10-19 09:58:59.886
-13,-23,-22,-31,-18,-34,-7,10,2020-10-19 09:58:59.924
-14,-17,58,-39,80,-93,60,36,2020-10-19 09:58:59.963
64,14,115,101,-69,52,47,20,2020-10-19 09:59:00.005
-47,-12,-65,-25,42,-121,-69,-54,2020-10-19 09:59:00.048
-54,38,20,5,49,91,-54,8,2020-10-19 09:59:00.088
99,59,29,35,-12,-67,-40,83,2020-10-19 09:59:00.130
-9,-28,77,18,-18,-17,-74,-51,2020-10-19 09:59:00.171
