Avg EMG - Pod01,Avg EMG - Pod02,Avg EMG - Pod03,Avg EMG - Pod04,Avg EMG - Pod05,Avg EMG - Pod06,Avg EMG - Pod07,Avg EMG - Pod08,Start Timestamp
1,8,5,4,7,8,2,6,4,3,6,2,1,6,2020-10-19 09:58:22.227
1,6,6,6,7,6,2,4,2,3,6,2,1,2020-10-19 09:58:22.277
1,4,6,10,8,2,4,4,2,4,2,4,1,4,2020-10-19 09:58:22.293
1,8,7,8,5,8,3,8,4,8,4,6,2,2,1,8,2020-10-19 09:58:22.310
1,4,6,6,7,4,3,6,4,4,6,1,8,1,6,2020-10-19 09:58:22.326
1,2,7,4,7,8,4,2,6,6,4,4,2,4,1,2,2020-10-19 09:58:22.343
1,6,5,8,14,6,5,2,9,4,5,4,3,4,1,4,2020-10-19 09:58:22.368
2,8,7,6,12,2,6,12,4,5,6,5,4,2,2,2020-10-19 09:58:22.377
2,8,6,6,14,2,4,2,11,8,5,8,6,1,8,2020-10-19 09:58:22.393
2,4,7,2,13,2,4,9,8,4,8,6,8,1,8,2020-10-19 09:58:22.410
2,8,6,2,12,2,3,10,4,6,6,6,8,2,2020-10-19 09:58:22.427
2,8,9,8,2,8,8,4,6,4,6,1,8,2020-10-19 09:58:22.444
1,8,6,8,6,4,2,6,7,6,5,8,3,8,0,6,2020-10-19 09:58:22.461
1,6,6,5,8,2,6,8,2,6,4,4,2,1,2,2020-10-19 09:58:22.477
1,6,5,6,6,2,6,8,7,2,4,2,1,6,2020-10-19 09:58:22.493
1,6,5,2,7,2,8,7,6,6,6,3,8,1,6,2020-10-19 09:58:22.511
2,2,3,8,7,2,2,4,7,4,6,6,3,6,2,2020-10-19 09:58:22.527
2,4,3,6,10,1,4,5,2,6,3,4,1,8,2020-10-19 09:58:22.544
2,8,4,6,10,6,2,4,7,6,6,3,4,1,6,2020-10-19 09:58:22.561
3,2,5,6,9,2,2,4,6,8,6,4,3,4,1,2,2020-10-19 09:58:22.577
2,8,5,8,9,2,2,8,6,6,6,2,3,4,1,2,2020-10-19 09:58:22.593
2,4,4,2,7,2,2,8,6,5,2,3,8,1,2020-10-19 09:58:22.610
2,6,8,6,6,6,2,6,6,8,5,3,4,1,4,2020-10-19 09:58:22.626
3,8,6,2,2,6,5,2,4,2,6,1,2,2020-10-19 09:58:22.644
3,2,8,8,4,2,4,5,8,3,2,4,1,8,2020-10-19 09:58:22.660
3,2,9,4,9,4,1,8,4,8,3,2,2,2,2020-10-19 09:58:22.677
2,6,8,8,9,6,1,8,4,8,3,6,2,2,1,8,2020-10-19 09:58:22.694
2,4,6,2,11,2,1,8,4,2,3,6,2,8,1,8,2020-10-19 09:58:22.711
1,4,6,2,10,2,6,6,6,6,2,3,6,2,4,2020-10-19 09:58:22.727
2,8,7,2,11,4,4,2,6,6,3,4,2,6,2020-10-19 09:58:22.744
3,6,5,6,10,2,5,10,4,6,4,6,2,6,2020-10-19 09:58:22.761
5,6,6,8,10,6,5,2,11,6,5,6,3,8,4,4,2020-10-19 09:58:22.778
5,6,4,8,8,6,6,12,6,3,2,4,2,2020-10-19 09:58:22.794
7,6,7,8,5,2,9,4,3,4,2,6,3,8,2020-10-19 09:58:22.811
5,8,5,2,5,8,4,4,10,2,2,8,2,6,3,2,2020-10-19 09:58:22.828
6,5,6,7,2,4,6,1,6,1,4,4,2,2020-10-19 09:58:22.844
4,4,5,2,8,7,6,11,2,2,1,4,2,4,2020-10-19 09:58:22.861
7,2,5,4,8,4,6,2,10,2,2,4,1,8,4,2,2020-10-19 09:58:22.878
7,2,3,6,8,8,6,8,9,2,4,1,2,5,2020-10-19 09:58:22.894
6,4,3,7,8,7,8,12,4,2,2,0,8,5,2,2020-10-19 09:58:22.911
6,4,2,6,6,4,7,8,15,6,2,2,0,8,4,8,2020-10-19 09:58:22.928
6,2,2,2,4,4,5,12,1,6,1,2,5,2,2020-10-19 09:58:22.944
3,4,2,4,3,6,5,6,12,4,1,1,4,3,8,2020-10-19 09:58:22.960
2,8,4,4,4,6,4,6,13,6,1,6,2,2,3,4,2020-10-19 09:58:22.977
3,8,5,4,4,8,2,8,12,3,2,3,2,2020-10-19 09:58:22.993
2,8,5,6,4,6,3,2,10,6,3,2,2,2,2,2020-10-19 09:58:23.011
2,4,5,6,5,2,3,8,9,6,4,2,1,8,2,2020-10-19 09:58:23.028
3,4,6,6,6,2,3,6,11,4,4,8,1,6,2,2020-10-19 09:58:23.044
4,2,9,12,8,4,12,2,4,4,1,2,1,8,2020-10-19 09:58:23.061
3,2,7,4,13,6,4,8,10,8,3,2,1,2,1,4,2020-10-19 09:58:23.078
4,7,8,13,6,4,8,10,2,4,4,2,2,2020-10-19 09:58:23.094
4,8,9,8,12,8,4,9,6,3,8,2,4,2,2,2020-10-19 09:58:23.112
3,4,9,6,12,4,6,7,8,3,6,2,1,8,2020-10-19 09:58:23.129
2,8,6,4,7,4,6,6,3,4,2,2,1,8,2020-10-19 09:58:23.144
3,2,9,2,10,5,2,8,2,3,8,2,4,2,2,2020-10-19 09:58:23.162
2,6,8,6,10,6,4,6,8,4,3,1,8,2,2020-10-19 09:58:23.178
2,2,6,6,12,3,6,8,8,3,2,1,8,2,2020-10-19 09:58:23.206
2,2,7,13,2,8,8,6,3,6,2,6,1,8,2020-10-19 09:58:23.264
1,2,5,8,11,4,4,12,3,4,2,2,1,4,2020-10-19 09:58:23.308
1,3,7,8,3,2,9,8,3,2,1,4,2020-10-19 09:58:23.352
0,8,2,6,7,3,8,8,2,6,2,4,1,4,2020-10-19 09:58:23.392
0,4,3,7,3,8,11,4,3,4,2,4,1,2020-10-19 09:58:23.432
0,6,2,2,4,8,4,2,10,4,3,6,1,8,1,4,2020-10-19 09:58:23.472
1,2,2,2,3,4,3,7,4,3,4,2,2,2020-10-19 09:58:23.511
1,2,4,3,2,3,4,6,6,4,2,3,2,2,4,2020-10-19 09:58:23.555
1,6,2,8,3,4,3,6,7,4,3,8,3,2020-10-19 09:58:23.594
2,2,3,2,4,3,6,5,4,4,4,5,8,3,8,2020-10-19 09:58:23.631
2,6,2,4,2,6,4,2,6,2,5,8,6,2,4,2,2020-10-19 09:58:23.668
2,2,2,4,2,2,4,4,6,11,6,9,8,4,2020-10-19 09:58:23.709
2,6,2,4,2,8,4,6,9,11,6,9,8,4,2,2020-10-19 09:58:23.746
2,8,2,2,6,4,2,10,8,16,4,10,4,4,2020-10-19 09:58:23.783
2,4,1,2,2,8,4,9,6,18,10,3,6,2020-10-19 09:58:23.823
2,1,4,4,6,4,2,9,17,2,10,4,2,8,2020-10-19 09:58:23.861
2,2,6,10,2,7,9,6,11,6,7,2,3,2,2020-10-19 09:58:23.899
2,3,8,13,9,8,8,6,13,9,2,3,2020-10-19 09:58:23.935
1,8,5,4,13,2,14,2,6,4,10,8,8,6,2,8,2020-10-19 09:58:23.974
1,8,9,8,32,8,15,4,4,6,11,8,8,2,3,6,2020-10-19 09:58:24.015
6,2,18,6,55,6,20,6,6,2,29,2,13,6,6,8,2020-10-19 09:58:24.052
11,23,60,2,24,4,8,2,30,6,20,8,6,6,2020-10-19 09:58:24.091
16,2,29,59,8,32,2,8,6,36,2,18,4,12,2,2020-10-19 09:58:24.130
18,6,30,4,67,29,8,8,49,19,4,17,6,2020-10-19 09:58:24.170
25,6,28,2,53,4,31,14,6,53,25,2,25,4,2020-10-19 09:58:24.214
40,4,25,8,34,32,14,40,4,22,30,2,2020-10-19 09:58:24.254
39,8,20,6,38,4,28,11,8,61,17,32,2020-10-19 09:58:24.294
46,2,15,6,37,8,21,6,14,4,78,6,21,2,28,4,2020-10-19 09:58:24.335
48,4,18,4,31,6,28,6,15,2,76,6,24,8,33,8,2020-10-19 09:58:24.374
41,6,27,6,33,6,27,4,23,80,8,24,8,26,4,2020-10-19 09:58:24.411
30,2,31,2,48,24,35,6,83,2,36,26,2,2020-10-19 09:58:24.448
28,2,40,8,45,2,28,40,2,65,41,4,29,2020-10-19 09:58:24.489
29,4,53,42,4,26,2,45,42,59,27,6,2020-10-19 09:58:24.529
33,57,2,58,26,2,50,6,38,2,57,21,2,2020-10-19 09:58:24.567
46,6,53,2,56,2,25,4,40,2,29,2,51,8,28,6,2020-10-19 09:58:24.610
45,2,49,2,38,4,24,8,32,22,2,40,22,2,2020-10-19 09:58:24.648
49,2,43,8,36,6,32,2,37,2,23,41,8,22,8,2020-10-19 09:58:24.688
37,2,33,4,49,4,35,8,34,4,32,2,33,2,26,2020-10-19 09:58:24.735
39,2,32,8,35,4,43,37,4,42,34,8,21,8,2020-10-19 09:58:24.777
26,8,27,6,36,4,64,8,36,6,53,6,34,6,19,8,2020-10-19 09:58:24.814
21,6,33,48,73,4,36,4,63,4,57,6,27,2,2020-10-19 09:58:24.851
25,8,32,8,43,6,64,27,68,2,65,28,2020-10-19 09:58:24.887
26,32,8,32,2,66,6,23,4,60,8,56,24,6,2020-10-19 09:58:24.926
27,2,35,6,33,72,18,2,46,6,74,4,24,2,2020-10-19 09:58:24.965
26,4,35,4,26,6,55,6,22,2,33,4,75,19,2,2020-10-19 09:58:25.006
28,2,24,2,28,4,46,2,20,38,69,6,14,2,2020-10-19 09:58:25.043
23,6,28,2,30,4,43,6,23,2,44,2,68,6,8,2020-10-19 09:58:25.083
24,6,32,6,33,4,40,6,21,8,52,2,64,2,9,8,2020-10-19 09:58:25.123
13,2,21,2,31,21,18,8,55,46,8,11,8,2020-10-19 09:58:25.160
12,6,21,34,14,8,13,8,58,48,6,12,6,2020-10-19 09:58:25.195
9,6,27,8,23,12,8,19,6,46,36,6,12,4,2020-10-19 09:58:25.234
3,6,22,6,20,8,15,8,19,8,31,2,20,6,13,2,2020-10-19 09:58:25.273
2,2,14,4,21,4,10,8,24,6,24,6,21,13,4,2020-10-19 09:58:25.310
2,14,8,21,6,17,6,45,4,20,4,16,4,11,6,2020-10-19 09:58:25.349
2,13,8,19,8,35,2,48,6,17,13,9,2020-10-19 09:58:25.387
2,7,4,15,6,34,8,39,8,13,6,7,4,6,4,2020-10-19 09:58:25.427
2,6,4,6,11,2,31,6,35,6,13,8,8,5,8,2020-10-19 09:58:25.466
2,2,7,8,7,30,6,42,2,13,2,8,2,3,2020-10-19 09:58:25.502
2,2,7,2,6,22,2,22,6,10,8,2,3,2,2020-10-19 09:58:25.540
3,6,4,3,6,7,25,10,6,7,4,3,4,2020-10-19 09:58:25.581
3,8,12,8,4,6,7,2,28,10,5,8,4,4,2020-10-19 09:58:25.621
3,4,13,7,8,7,6,30,2,8,8,6,5,2,2020-10-19 09:58:25.661
4,13,6,6,6,9,6,20,4,4,8,5,8,2020-10-19 09:58:25.700
4,6,15,6,7,8,14,8,20,4,3,8,3,6,6,2020-10-19 09:58:25.744
4,8,15,8,8,12,8,12,8,2,4,2,6,8,2020-10-19 09:58:25.781
5,9,4,9,4,13,4,11,2,6,5,6,6,2020-10-19 09:58:25.819
6,8,6,5,6,10,6,9,4,7,6,8,6,2020-10-19 09:58:25.858
5,2,4,8,7,2,15,6,6,6,7,2,7,8,5,6,2020-10-19 09:58:25.896
4,8,3,4,7,12,6,4,4,6,8,7,4,4,6,2020-10-19 09:58:25.935
5,7,7,2,14,8,6,2,7,6,8,4,2020-10-19 09:58:25.975
4,6,6,4,8,14,5,4,4,4,8,3,2020-10-19 09:58:26.016
3,6,6,8,4,6,17,7,4,3,3,1,6,2020-10-19 09:58:26.056
3,2,6,2,8,11,2,8,2,3,2,2,1,2020-10-19 09:58:26.096
2,8,5,4,2,2,11,4,9,2,3,2,2,1,2020-10-19 09:58:26.134
1,4,1,6,1,6,8,6,7,8,2,8,2,0,6,2020-10-19 09:58:26.170
1,4,1,4,2,12,10,6,2,1,6,0,8,2020-10-19 09:58:26.211
1,1,4,2,2,9,4,7,8,3,6,2,1,6,2020-10-19 09:58:26.251
1,1,6,2,6,10,2,8,5,2,2,2,1,6,2020-10-19 09:58:26.290
0,8,1,4,1,8,8,2,6,4,5,6,2,4,1,8,2020-10-19 09:58:26.327
2,2,2,6,2,8,4,7,7,6,3,2,2,2020-10-19 09:58:26.368
2,6,2,6,1,8,5,4,4,6,8,4,3,8,2,2020-10-19 09:58:26.406
2,4,2,6,2,4,8,2,6,7,2,3,1,6,2020-10-19 09:58:26.442
2,6,2,4,2,7,4,6,5,2,8,1,8,2020-10-19 09:58:26.480
2,8,2,4,2,2,7,8,5,4,4,2,6,2,2020-10-19 09:58:26.517
2,2,1,4,2,6,9,6,5,4,2,1,4,2,2020-10-19 09:58:26.558
1,6,1,2,2,2,9,8,4,4,1,1,1,6,2020-10-19 09:58:26.597
3,2,1,8,1,4,6,6,3,4,1,2,1,2,1,6,2020-10-19 09:58:26.635
2,8,2,1,4,5,2,3,4,1,4,1,1,6,2020-10-19 09:58:26.673
3,1,6,1,2,4,4,3,2,1,2,1,2,1,4,2020-10-19 09:58:26.712
3,4,1,8,0,8,3,2,4,2,2,1,8,2020-10-19 09:58:26.752
6,2,2,4,1,4,3,4,2,2,2,2,2,2,2020-10-19 09:58:26.792
5,2,1,2,3,4,2,1,4,1,6,2,2020-10-19 09:58:26.831
5,2,2,1,4,3,2,2,4,1,2,1,6,2,2020-10-19 09:58:26.869
5,2,4,1,6,2,4,2,4,1,2,1,4,2,2020-10-19 09:58:26.907
4,2,2,4,1,4,3,4,2,6,0,8,1,2,1,6,2020-10-19 09:58:26.944
1,8,1,6,1,2,4,3,1,1,2,1,4,2020-10-19 09:58:26.983
2,4,1,6,1,4,2,6,3,0,8,1,2,1,4,2020-10-19 09:58:27.026
4,2,2,1,4,2,6,2,4,1,1,6,1,8,2020-10-19 09:58:27.063
4,2,6,1,2,3,2,2,1,6,2,2,2,2020-10-19 09:58:27.099
4,2,6,1,4,2,2,4,2,2,2,2020-10-19 09:58:27.139
4,2,8,1,4,1,8,2,6,1,8,2,1,8,2020-10-19 09:58:27.178
4,4,3,4,2,4,2,8,2,8,2,2,2,4,2020-10-19 09:58:27.221
3,2,3,2,6,3,4,2,8,2,1,6,1,8,2020-10-19 09:58:27.259
2,8,4,4,4,4,4,6,3,2,1,8,1,4,1,4,2020-10-19 09:58:27.295
2,6,6,2,4,8,4,2,2,2,1,1,1,4,2020-10-19 09:58:27.334
2,8,12,2,7,6,5,6,3,1,4,1,4,1,4,2020-10-19 09:58:27.372
1,8,12,6,4,4,4,2,4,1,4,1,2,0,6,2020-10-19 09:58:27.411
2,13,4,6,6,4,2,4,1,2,1,0,8,2020-10-19 09:58:27.450
2,2,12,4,5,2,2,6,2,0,8,1,4,0,8,2020-10-19 09:58:27.488
2,11,4,6,2,8,1,8,0,8,1,2,0,8,2020-10-19 09:58:27.525
2,8,8,6,2,2,6,1,0,8,1,2,1,2,2020-10-19 09:58:27.567
2,4,9,2,2,4,3,1,2,0,8,1,4,1,4,2020-10-19 09:58:27.606
3,8,6,3,2,5,2,6,1,2,1,8,1,6,2020-10-19 09:58:27.645
3,7,8,4,5,2,2,8,1,4,1,4,1,6,2020-10-19 09:58:27.687
3,2,7,4,4,4,6,4,6,1,8,1,4,1,6,2020-10-19 09:58:27.725
2,6,8,4,2,4,4,5,2,1,4,1,1,6,2020-10-19 09:58:27.773
3,7,4,3,8,6,2,6,1,6,1,4,1,8,2020-10-19 09:58:27.816
1,8,8,3,4,4,8,4,6,1,4,1,4,1,8,2020-10-19 09:58:27.855
2,8,8,2,8,4,8,4,8,1,4,1,8,1,8,2020-10-19 09:58:27.892
1,8,8,8,2,4,5,3,8,1,2,2,1,8,2020-10-19 09:58:27.931
1,4,4,2,6,7,3,6,1,2,1,8,1,4,2020-10-19 09:58:27.973
1,3,8,2,8,5,4,4,2,1,2,1,4,1,2020-10-19 09:58:28.011
1,4,2,4,2,5,6,4,8,1,6,1,6,1,2020-10-19 09:58:28.049
1,2,1,6,2,6,6,1,6,1,2,1,4,2020-10-19 09:58:28.089
1,6,1,8,2,2,12,8,6,2,1,2,1,4,2020-10-19 09:58:28.128
1,4,1,8,2,10,2,8,6,2,1,4,1,6,2020-10-19 09:58:28.166
1,2,1,6,1,8,10,8,8,6,2,4,1,4,1,6,2020-10-19 09:58:28.205
0,8,1,8,2,2,13,8,8,2,0,8,1,4,2020-10-19 09:58:28.243
0,6,2,4,1,6,13,2,8,8,2,0,8,1,2020-10-19 09:58:28.281
0,2,2,4,1,6,9,7,4,1,8,0,8,1,2020-10-19 09:58:28.317
0,4,2,8,1,6,8,6,4,2,1,1,2,2020-10-19 09:58:28.354
0,6,2,8,1,8,8,4,5,1,4,0,8,1,2020-10-19 09:58:28.392
0,8,2,1,4,5,2,4,4,1,6,0,8,1,2020-10-19 09:58:28.433
0,8,1,4,1,4,5,4,2,8,1,8,0,8,1,2020-10-19 09:58:28.470
0,8,1,2,1,2,3,6,1,2,1,8,0,6,1,2020-10-19 09:58:28.509
0,6,1,2,1,2,4,4,1,2,1,6,0,2,1,2020-10-19 09:58:28.548
0,4,0,8,1,3,4,1,1,6,0,4,1,2,2020-10-19 09:58:28.591
0,8,1,6,1,4,2,1,1,2,0,6,1,2020-10-19 09:58:28.632
1,2,1,6,1,2,3,6,1,4,1,4,0,6,0,8,2020-10-19 09:58:28.669
1,6,1,6,1,3,8,2,1,2,0,6,0,6,2020-10-19 09:58:28.712
1,6,1,6,1,2,3,6,2,1,2,0,8,0,6,2020-10-19 09:58:28.757
2,4,1,8,1,4,3,2,2,2,1,4,0,8,0,8,2020-10-19 09:58:28.799
2,4,1,4,1,2,3,2,2,1,4,0,6,1,2,2020-10-19 09:58:28.840
2,4,1,4,1,3,8,2,4,1,0,4,1,4,2020-10-19 09:58:28.880
3,1,6,1,2,4,2,1,6,0,8,0,6,1,6,2020-10-19 09:58:28.920
3,6,1,6,1,4,8,1,8,0,8,0,6,1,6,2020-10-19 09:58:28.960
4,2,2,4,1,2,5,4,2,0,6,0,6,1,8,2020-10-19 09:58:28.999
3,8,2,4,1,4,5,8,2,4,2,1,2,1,8,2020-10-19 09:58:29.037
3,6,2,2,3,4,5,2,12,4,4,6,2,1,8,2020-10-19 09:58:29.076
2,6,2,3,4,4,6,14,6,4,8,2,1,8,2020-10-19 09:58:29.115
1,8,2,4,2,3,14,8,5,4,2,4,1,6,2020-10-19 09:58:29.155
0,8,1,2,3,6,2,4,16,8,7,2,8,1,2,2020-10-19 09:58:29.196
3,1,6,4,2,2,17,8,9,2,7,2,3,8,2020-10-19 09:58:29.234
4,4,2,2,2,2,7,6,11,6,10,8,5,2020-10-19 09:58:29.274
5,8,2,2,2,2,4,5,4,11,6,16,5,8,2020-10-19 09:58:29.313
6,2,1,8,1,8,2,8,5,2,11,8,15,4,6,4,2020-10-19 09:58:29.354
7,6,1,8,2,4,3,6,3,6,10,8,16,7,2020-10-19 09:58:29.399
5,6,1,2,2,7,2,7,2,11,2,4,6,2020-10-19 09:58:29.438
6,2,2,5,16,2,7,4,3,4,7,6,4,4,2020-10-19 09:58:29.482
5,6,4,2,9,2,19,2,10,5,2,3,2,4,8,2020-10-19 09:58:29.525
8,4,6,10,8,26,4,27,6,23,6,13,6,9,2020-10-19 09:58:29.563
9,8,13,2,32,44,6,41,6,24,2,12,4,2020-10-19 09:58:29.601
10,8,9,6,15,8,35,56,4,47,4,30,14,4,2020-10-19 09:58:29.640
9,8,8,4,14,25,6,59,47,2,30,6,14,2,2020-10-19 09:58:29.678
10,10,6,11,26,2,78,8,55,35,4,16,2,2020-10-19 09:58:29.717
7,2,9,4,9,2,18,8,68,4,39,26,8,12,6,2020-10-19 09:58:29.755
4,8,7,6,6,4,14,6,54,6,20,8,15,4,8,4,2020-10-19 09:58:29.795
3,4,8,4,3,8,9,6,47,4,16,4,10,2,5,8,2020-10-19 09:58:29.833
2,8,9,6,3,8,9,2,41,8,16,8,9,4,8,2020-10-19 09:58:29.874
3,6,2,3,8,8,36,8,14,4,2,2,2,2020-10-19 09:58:29.912
2,8,6,6,6,6,12,4,39,4,11,2,3,2,1,2020-10-19 09:58:29.951
4,7,8,8,2,16,4,35,8,12,4,5,2,2,8,2020-10-19 09:58:29.994
12,2,8,8,11,8,19,4,34,8,18,2,13,4,9,8,2020-10-19 09:58:30.034
15,4,9,11,8,20,8,36,8,32,8,35,21,2,2020-10-19 09:58:30.073
17,8,10,13,8,21,2,25,6,48,4,53,8,27,2020-10-19 09:58:30.112
19,4,9,6,11,2,19,23,6,48,4,58,2,30,4,2020-10-19 09:58:30.151
21,2,8,8,10,2,12,6,27,50,58,4,32,6,2020-10-19 09:58:30.193
13,4,7,8,9,4,8,8,26,2,44,50,8,25,6,2020-10-19 09:58:30.233
11,7,6,8,4,8,2,24,6,31,2,36,2,17,6,2020-10-19 09:58:30.273
8,8,6,6,4,6,2,21,2,14,4,20,2,14,6,2020-10-19 09:58:30.312
8,4,5,8,6,4,5,17,16,4,15,8,14,2,2020-10-19 09:58:30.352
12,2,8,6,8,4,7,8,15,2,22,8,14,2,17,4,2020-10-19 09:58:30.391
11,8,6,4,5,8,9,23,8,28,2,14,2,19,8,2020-10-19 09:58:30.431
12,6,6,4,5,8,9,4,24,2,28,4,9,4,20,8,2020-10-19 09:58:30.471
11,8,17,2,10,8,10,25,6,31,8,6,2,17,6,2020-10-19 09:58:30.511
10,8,21,8,15,6,25,4,32,2,32,8,6,14,8,2020-10-19 09:58:30.551
6,4,25,16,4,23,2,32,4,27,6,9,4,8,4,2020-10-19 09:58:30.592
8,2,27,2,21,8,20,8,21,4,21,6,12,8,9,2,2020-10-19 09:58:30.630
8,4,27,8,22,6,30,6,21,2,23,2,14,8,8,8,2020-10-19 09:58:30.672
9,17,4,18,4,30,2,17,4,17,8,18,2,9,4,2020-10-19 09:58:30.709
15,4,13,6,14,2,14,6,7,16,4,16,4,13,6,2020-10-19 09:58:30.747
15,7,2,11,4,14,2,6,8,11,6,15,14,2020-10-19 09:58:30.788
14,4,5,6,2,15,9,6,12,4,11,11,4,2020-10-19 09:58:30.830
13,6,3,4,5,5,13,2,10,8,8,8,6,2020-10-19 09:58:30.864
18,6,3,4,7,5,8,17,6,8,6,4,4,9,8,2020-10-19 09:58:30.900
12,4,2,6,11,20,21,9,2,4,6,5,2,2020-10-19 09:58:30.938
15,8,6,2,10,2,20,8,20,4,9,8,5,4,5,8,2020-10-19 09:58:30.974
14,4,7,6,9,8,23,2,18,2,9,8,5,8,5,2,2020-10-19 09:58:31.011
13,7,8,12,24,6,11,2,6,4,4,6,4,4,2020-10-19 09:58:31.048
16,8,11,2,10,8,23,2,7,2,6,4,5,8,5,2,2020-10-19 09:58:31.083
17,10,8,5,2,9,2,3,8,4,6,4,6,5,4,2020-10-19 09:58:31.123
15,2,10,9,4,8,3,4,4,2,4,4,6,2020-10-19 09:58:31.161
14,8,10,10,5,2,2,3,4,3,4,6,2020-10-19 09:58:31.196
15,4,12,6,9,4,3,2,3,8,3,4,4,2020-10-19 09:58:31.235
8,2,10,2,7,4,1,4,1,6,3,8,2,4,2,6,2020-10-19 09:58:31.274
8,8,11,2,9,8,1,1,8,3,6,2,8,2,4,2020-10-19 09:58:31.310
7,2,8,8,7,2,1,2,1,2,4,4,2,8,1,6,2020-10-19 09:58:31.349
7,6,8,7,1,4,1,2,4,6,3,1,8,2020-10-19 09:58:31.388
7,6,6,6,8,1,2,1,4,4,6,3,2,2020-10-19 09:58:31.427
4,2,5,8,7,6,2,2,3,8,2,6,1,4,2020-10-19 09:58:31.464
3,5,2,5,4,6,7,8,11,6,5,2,6,2020-10-19 09:58:31.502
3,6,6,5,7,4,9,2,20,6,9,3,4,2020-10-19 09:58:31.540
3,2,6,4,4,8,9,8,9,4,28,6,9,6,4,6,2020-10-19 09:58:31.579
3,8,5,3,4,12,4,11,28,4,11,4,6,2020-10-19 09:58:31.618
4,4,4,2,3,13,4,10,4,31,6,12,4,4,8,2020-10-19 09:58:31.661
4,4,9,7,4,14,2,10,6,26,4,9,6,3,6,2020-10-19 09:58:31.707
5,6,17,10,8,17,10,18,8,7,6,4,6,2020-10-19 09:58:31.750
5,8,22,6,12,2,17,11,6,10,4,7,8,4,4,2020-10-19 09:58:31.787
6,24,6,13,4,18,23,8,12,2,6,8,4,6,2020-10-19 09:58:31.830
5,6,26,6,14,6,19,8,29,4,11,6,6,2,4,4,2020-10-19 09:58:31.870
6,21,4,10,2,15,24,2,9,8,6,4,8,2020-10-19 09:58:31.915
3,11,6,5,8,13,30,8,8,4,4,3,2020-10-19 09:58:31.951
2,2,6,6,4,4,11,6,36,2,9,8,4,2,2,2,2020-10-19 09:58:31.991
1,4,5,3,6,9,2,23,8,4,5,2,2,4,2020-10-19 09:58:32.025
1,6,2,8,2,8,15,4,17,5,2,3,8,2,2020-10-19 09:58:32.063
1,4,2,4,23,18,4,10,8,4,3,2020-10-19 09:58:32.101
1,6,6,4,2,8,22,6,16,6,11,4,3,6,3,2020-10-19 09:58:32.141
1,6,6,2,3,6,21,6,10,2,11,4,3,2,8,2020-10-19 09:58:32.181
2,6,7,4,4,6,20,8,10,10,8,1,8,2,2020-10-19 09:58:32.218
2,2,8,4,8,14,12,2,11,2,1,8,2,2,2020-10-19 09:58:32.255
2,6,6,6,5,4,9,2,14,2,5,2,1,6,1,2,2020-10-19 09:58:32.295
2,6,5,5,8,9,4,19,4,1,2,1,2020-10-19 09:58:32.330
2,6,3,8,5,9,6,19,2,3,6,1,1,2020-10-19 09:58:32.367
1,6,1,8,3,8,10,2,21,3,8,1,1,4,2020-10-19 09:58:32.403
2,1,4,2,6,7,6,19,6,3,8,1,4,1,2,2020-10-19 09:58:32.444
1,6,1,6,2,8,6,17,6,3,8,1,4,1,2020-10-19 09:58:32.480
1,4,2,4,6,5,8,2,3,2,1,4,1,2,2020-10-19 09:58:32.517
1,4,2,2,4,6,4,6,9,8,2,2,1,2,1,4,2020-10-19 09:58:32.557
1,6,2,4,5,4,7,4,9,3,2,1,8,1,8,2020-10-19 09:58:32.597
1,4,2,2,6,8,2,14,3,8,1,8,2,4,2020-10-19 09:58:32.636
1,4,2,5,8,7,4,22,5,4,3,4,3,2,2020-10-19 09:58:32.675
12,8,14,6,8,4,7,4,31,6,8,2,7,2,7,4,2020-10-19 09:58:32.710
38,39,8,18,2,10,8,28,8,10,8,8,4,14,8,2020-10-19 09:58:32.749
45,2,47,4,20,8,9,6,29,6,10,2,9,8,16,8,2020-10-19 09:58:32.786
53,6,65,2,29,6,14,27,2,9,4,13,4,31,6,2020-10-19 09:58:32.825
57,8,67,8,37,25,6,29,8,9,6,12,6,31,4,2020-10-19 09:58:32.861
56,4,59,4,34,4,25,4,24,4,8,6,11,2,31,4,2020-10-19 09:58:32.898
36,4,47,6,27,2,24,8,25,2,9,8,13,24,2,2020-10-19 09:58:32.934
46,8,57,4,23,8,23,4,24,4,10,11,24,2,2020-10-19 09:58:32.974
38,2,41,4,15,4,18,23,6,10,7,2,8,6,2020-10-19 09:58:33.010
37,4,40,2,8,2,6,8,11,8,8,7,8,2,2020-10-19 09:58:33.050
28,8,36,6,5,8,8,2,7,4,6,6,4,6,4,2020-10-19 09:58:33.085
27,2,23,2,3,6,5,6,7,6,3,4,1,8,3,8,2020-10-19 09:58:33.124
12,2,7,2,3,8,5,4,6,4,2,6,1,8,1,6,2020-10-19 09:58:33.160
12,4,7,8,3,9,6,6,8,2,8,2,6,2,4,2020-10-19 09:58:33.200
11,2,11,4,2,4,11,7,2,2,3,3,8,2020-10-19 09:58:33.237
12,2,14,6,3,4,10,8,6,6,6,2,7,4,4,8,2020-10-19 09:58:33.278
14,4,18,4,5,2,14,2,13,8,31,28,6,19,6,2020-10-19 09:58:33.314
26,2,24,9,2,18,8,21,4,42,4,36,8,35,2020-10-19 09:58:33.352
28,4,24,2,10,2,14,4,18,2,45,41,8,34,6,2020-10-19 09:58:33.387
30,6,20,4,10,16,18,6,50,4,45,2,33,2,2020-10-19 09:58:33.428
40,17,2,11,2,17,8,17,8,46,4,42,4,36,4,2020-10-19 09:58:33.463
34,2,24,4,9,6,14,6,10,4,21,8,21,2,23,8,2020-10-19 09:58:33.503
19,8,23,2,5,2,8,8,4,4,12,13,2,7,8,2020-10-19 09:58:33.542
17,4,22,6,7,6,13,5,6,9,7,4,7,6,2020-10-19 09:58:33.582
13,4,23,4,10,2,9,6,6,6,3,6,3,7,8,2020-10-19 09:58:33.618
1,4,23,2,8,4,17,2,9,3,4,1,6,3,8,2020-10-19 09:58:33.658
1,8,13,2,8,2,19,9,8,3,8,2,1,2,2020-10-19 09:58:33.695
10,2,17,4,8,6,21,18,2,3,2,1,6,3,2020-10-19 09:58:33.731
21,6,24,2,7,4,18,8,24,2,10,4,2,8,6,8,2020-10-19 09:58:33.769
25,2,23,8,7,2,20,8,28,4,13,2,4,8,6,4,2020-10-19 09:58:33.809
28,25,6,9,10,27,13,6,4,6,8,2020-10-19 09:58:33.846
43,4,44,9,4,11,2,25,4,12,8,4,6,9,4,2020-10-19 09:58:33.883
35,6,34,8,12,2,14,17,8,14,4,6,7,8,2020-10-19 09:58:33.920
27,2,28,8,10,2,23,6,12,11,2,6,2,5,4,2020-10-19 09:58:33.959
24,8,31,2,10,2,29,6,5,8,16,4,5,8,5,4,2020-10-19 09:58:34.000
26,2,29,6,7,6,30,4,8,2,19,4,6,8,3,4,2020-10-19 09:58:34.036
12,10,8,6,6,30,4,10,2,19,6,7,4,3,2020-10-19 09:58:34.073
13,10,3,6,28,2,8,20,4,10,4,4,4,2020-10-19 09:58:34.111
10,4,7,2,4,22,4,18,8,19,8,7,8,3,2020-10-19 09:58:34.147
9,4,2,3,4,18,4,26,4,13,7,4,3,4,2020-10-19 09:58:34.184
4,4,2,4,4,2,22,8,24,4,11,8,9,5,2020-10-19 09:58:34.221
5,4,6,4,7,2,35,24,6,14,10,2,4,8,2020-10-19 09:58:34.260
4,2,7,4,9,8,34,4,25,13,8,4,3,8,2020-10-19 09:58:34.298
8,8,12,2,12,2,29,4,18,12,6,10,6,2,2020-10-19 09:58:34.334
11,2,13,11,4,28,6,11,2,11,8,9,6,5,8,2020-10-19 09:58:34.374
12,8,14,12,6,32,2,10,4,12,2,8,6,4,6,2020-10-19 09:58:34.413
11,4,10,9,8,19,4,9,11,2,7,6,4,8,2020-10-19 09:58:34.447
11,11,6,6,8,17,6,8,6,9,4,6,4,4,4,2020-10-19 09:58:34.485
5,8,7,4,3,8,19,8,3,6,7,5,2,2,4,2020-10-19 09:58:34.522
4,5,8,6,8,18,4,3,2,6,6,4,6,3,2020-10-19 09:58:34.563
3,2,5,6,6,8,9,2,3,2,4,4,3,4,3,6,2020-10-19 09:58:34.599
2,2,5,6,8,6,6,3,2,2,8,2,4,2,8,2020-10-19 09:58:34.639
2,4,3,4,7,2,9,4,4,8,2,6,2,6,2,8,2020-10-19 09:58:34.677
2,4,3,2,7,6,6,6,5,4,2,2,2,6,2020-10-19 09:58:34.715
1,8,3,6,4,5,2,7,1,8,2,2,1,8,2020-10-19 09:58:34.753
1,4,2,4,2,2,6,7,6,1,8,2,1,2020-10-19 09:58:34.794
1,2,2,1,8,6,6,6,6,1,8,2,6,1,2,2020-10-19 09:58:34.833
1,2,1,6,1,6,4,6,4,8,1,8,3,2,2020-10-19 09:58:34.878
1,2,1,2,1,4,6,4,4,1,4,3,6,1,8,2020-10-19 09:58:34.918
1,0,8,1,2,4,4,2,4,1,2,4,2,6,2020-10-19 09:58:34.957
1,2,1,2,2,3,6,1,4,1,6,4,2,6,2020-10-19 09:58:34.998
1,8,1,8,15,2,5,1,2,1,6,4,2,3,8,2020-10-19 09:58:35.039
1,4,10,28,4,20,2,1,8,4,4,4,4,6,2020-10-19 09:58:35.081
18,2,14,8,42,27,8,14,6,4,8,5,2,5,8,2020-10-19 09:58:35.123
29,6,29,6,51,2,36,20,2,13,6,10,4,6,2020-10-19 09:58:35.165
29,8,29,6,72,8,39,4,22,2,14,2,11,2,7,2020-10-19 09:58:35.206
49,2,48,8,73,2,49,2,22,8,17,6,13,2,9,6,2020-10-19 09:58:35.249
51,4,42,79,2,41,8,22,6,14,8,14,2,9,6,2020-10-19 09:58:35.290
35,6,43,67,6,38,2,9,8,17,12,4,8,6,2020-10-19 09:58:35.329
25,2,29,6,74,2,40,2,11,8,8,6,4,8,8,2020-10-19 09:58:35.369
32,6,39,8,74,6,49,10,6,8,6,6,8,4,2020-10-19 09:58:35.408
19,6,24,4,75,45,4,13,8,3,8,5,4,2020-10-19 09:58:35.448
18,28,56,4,44,8,17,8,15,2,2,4,4,2,2020-10-19 09:58:35.484
22,4,23,6,71,8,43,8,18,8,19,4,2,4,4,2020-10-19 09:58:35.521
27,2,26,6,60,2,34,12,6,19,4,4,6,4,4,2020-10-19 09:58:35.558
34,8,23,39,6,21,6,11,2,18,2,6,2,4,4,2020-10-19 09:58:35.598
29,2,22,30,2,13,4,8,4,15,4,5,4,3,8,2020-10-19 09:58:35.634
29,8,18,31,4,7,3,8,8,4,5,8,3,4,2020-10-19 09:58:35.671
31,4,29,6,37,2,8,4,4,8,5,8,3,8,2020-10-19 09:58:35.710
31,4,28,8,37,6,11,4,4,9,2,5,8,4,2020-10-19 09:58:35.749
24,23,2,38,2,11,6,5,10,4,8,3,4,2020-10-19 09:58:35.784
26,8,22,8,44,4,12,6,5,6,10,4,8,3,2020-10-19 09:58:35.822
28,6,22,2,46,4,12,6,4,6,13,4,5,6,3,2020-10-19 09:58:35.858
27,6,14,24,2,10,4,5,4,11,8,5,3,2020-10-19 09:58:35.896
24,4,14,26,6,10,4,6,8,10,2,4,8,2,6,2020-10-19 09:58:35.931
21,6,18,2,23,8,10,6,7,8,9,2,4,8,3,2,2020-10-19 09:58:35.967
19,8,19,6,22,8,17,6,7,2,10,2,6,4,3,6,2020-10-19 09:58:36.004
18,4,18,8,24,8,19,8,4,8,5,4,3,6,2020-10-19 09:58:36.043
13,14,2,31,6,18,6,6,6,7,8,4,8,3,2,2020-10-19 09:58:36.079
14,10,4,41,8,16,2,6,4,9,6,2,3,8,2020-10-19 09:58:36.116
10,4,10,6,46,8,15,4,4,8,11,4,5,6,4,2020-10-19 09:58:36.153
12,2,8,2,44,2,7,8,5,14,4,4,5,2020-10-19 09:58:36.193
12,14,4,52,2,9,6,14,8,4,5,2020-10-19 09:58:36.232
15,8,21,4,52,8,7,8,4,13,6,3,6,6,2,2020-10-19 09:58:36.273
17,28,48,6,6,8,11,8,4,5,4,2020-10-19 09:58:36.312
16,8,26,2,48,2,11,4,8,9,4,4,6,4,4,2020-10-19 09:58:36.351
15,2,24,6,66,6,11,4,8,6,9,2,6,4,3,4,2020-10-19 09:58:36.387
17,6,21,4,52,8,19,2,7,7,8,7,2,5,2020-10-19 09:58:36.426
16,8,15,8,55,25,6,6,10,8,7,6,4,2,2020-10-19 09:58:36.463
15,6,14,47,4,25,4,6,11,6,5,6,4,2020-10-19 09:58:36.501
14,8,11,45,4,26,2,6,12,4,6,4,2020-10-19 09:58:36.537
17,8,12,2,21,6,28,6,6,13,2,5,2,5,2020-10-19 09:58:36.575
17,4,12,33,2,18,4,6,6,16,4,4,3,8,2020-10-19 09:58:36.614
20,2,14,2,35,2,17,8,5,6,10,4,4,2,2020-10-19 09:58:36.652
19,2,9,6,32,4,21,6,5,12,2,5,2,4,6,2020-10-19 09:58:36.687
25,2,10,29,18,8,5,4,12,8,5,2,5,2020-10-19 09:58:36.727
28,4,15,4,41,2,18,2,5,2,8,8,5,3,8,2020-10-19 09:58:36.763
25,12,8,35,6,18,5,8,9,6,7,6,4,4,2020-10-19 09:58:36.802
21,8,9,8,28,6,20,6,8,4,19,6,8,8,3,6,2020-10-19 09:58:36.840
19,6,12,6,49,4,28,12,2,17,8,8,4,3,8,2020-10-19 09:58:36.879
13,8,12,8,60,25,6,13,4,19,6,6,8,3,6,2020-10-19 09:58:36.915
7,8,8,6,53,4,26,8,13,2,20,2,6,2,4,4,2020-10-19 09:58:36.953
8,8,8,2,48,25,8,12,4,17,2,4,2,4,2,2020-10-19 09:58:36.989
8,11,44,8,19,6,11,2,8,6,3,8,4,6,2020-10-19 09:58:37.029
13,6,11,6,22,2,19,6,11,2,9,4,5,4,6,2020-10-19 09:58:37.066
16,4,10,8,25,4,20,8,6,8,7,2,8,2,2020-10-19 09:58:37.103
21,2,10,4,24,2,22,2,11,12,8,7,8,2020-10-19 09:58:37.138
20,4,15,4,27,4,25,12,6,12,4,8,7,8,2020-10-19 09:58:37.179
24,2,21,2,48,8,26,2,10,4,15,2,7,7,4,2020-10-19 09:58:37.220
18,8,17,6,51,2,16,8,7,17,2,7,4,5,6,2020-10-19 09:58:37.259
25,4,26,6,49,8,15,6,7,8,17,4,6,8,5,8,2020-10-19 09:58:37.298
23,6,33,2,55,16,8,5,8,14,6,8,2,6,6,2020-10-19 09:58:37.340
25,33,6,54,13,6,7,18,8,9,6,10,2020-10-19 09:58:37.380
19,36,8,34,4,14,6,10,2,16,2,11,6,13,2020-10-19 09:58:37.418
19,6,46,2,56,4,16,10,6,23,13,4,15,8,2020-10-19 09:58:37.455
14,4,41,8,64,8,22,8,9,8,21,2,13,4,14,2020-10-19 09:58:37.498
11,8,37,59,4,18,8,15,4,23,4,13,8,12,6,2020-10-19 09:58:37.536
12,36,61,4,18,4,14,8,21,11,2,8,6,2020-10-19 09:58:37.576
14,2,26,6,67,2,32,8,14,8,28,6,13,6,6,2,2020-10-19 09:58:37.617
14,21,4,44,6,30,8,24,6,22,9,6,2,8,2020-10-19 09:58:37.655
9,16,2,25,25,6,27,4,25,4,8,4,3,2,2020-10-19 09:58:37.690
7,4,15,2,22,4,28,8,30,2,29,6,9,4,3,6,2020-10-19 09:58:37.731
7,12,2,18,6,40,32,4,29,8,10,4,4,2020-10-19 09:58:37.767
6,6,19,2,10,6,28,38,24,6,6,2,8,2020-10-19 09:58:37.805
7,2,19,4,9,4,35,6,40,4,21,8,7,2,4,2,2020-10-19 09:58:37.841
7,8,20,8,8,37,4,42,8,18,4,8,4,2,2020-10-19 09:58:37.880
6,6,17,6,9,2,47,40,6,11,2,6,3,8,2020-10-19 09:58:37.917
6,17,8,12,6,46,49,6,10,8,5,6,3,8,2020-10-19 09:58:37.953
4,8,11,2,42,2,45,8,8,4,4,8,4,4,2020-10-19 09:58:37.990
2,6,3,6,10,4,34,35,2,7,4,3,8,3,2020-10-19 09:58:38.031
2,8,4,12,4,34,30,8,10,4,4,4,3,2,2020-10-19 09:58:38.066
3,6,4,4,11,2,23,8,29,6,11,5,6,4,6,2020-10-19 09:58:38.105
2,8,3,2,11,19,4,15,8,9,2,4,2,4,2,2020-10-19 09:58:38.143
3,3,4,11,4,16,4,12,8,4,7,6,4,4,2020-10-19 09:58:38.182
3,8,6,2,16,4,17,8,12,8,8,4,8,6,4,2,2020-10-19 09:58:38.219
22,4,22,2,36,2,21,23,2,17,9,9,2,2020-10-19 09:58:38.255
27,8,33,8,40,4,21,6,21,24,12,8,8,2020-10-19 09:58:38.292
38,37,8,36,2,17,2,24,8,27,15,4,12,8,2020-10-19 09:58:38.331
44,4,40,6,41,4,20,38,4,27,8,12,4,14,4,2020-10-19 09:58:38.365
49,8,40,8,37,6,18,2,40,35,6,16,17,2020-10-19 09:58:38.402
34,8,23,6,30,6,12,2,29,6,30,4,16,11,6,2020-10-19 09:58:38.438
32,14,6,37,8,10,6,27,8,23,6,11,8,13,4,2020-10-19 09:58:38.475
30,6,23,52,4,13,32,6,40,6,12,9,4,2020-10-19 09:58:38.514
24,6,21,4,61,2,11,4,20,8,47,6,15,4,7,6,2020-10-19 09:58:38.553
29,8,22,8,60,8,14,6,20,2,60,4,17,8,4,2020-10-19 09:58:38.589
27,2,30,6,47,19,4,26,8,56,6,15,2,7,6,2020-10-19 09:58:38.628
23,4,29,6,38,14,8,26,2,53,8,14,8,5,8,2020-10-19 09:58:38.665
14,6,20,38,8,11,8,24,6,45,17,6,2020-10-19 09:58:38.703
14,2,18,6,29,2,15,4,31,8,43,4,18,8,12,2,2020-10-19 09:58:38.739
11,8,25,6,36,4,16,6,33,4,23,4,12,6,9,8,2020-10-19 09:58:38.779
11,18,8,40,4,16,8,29,2,21,2,15,2,16,6,2020-10-19 09:58:38.818
11,2,16,2,38,8,16,6,32,8,21,8,16,8,18,4,2020-10-19 09:58:38.854
11,2,15,24,17,4,27,13,6,13,20,2020-10-19 09:58:38.892
11,4,15,2,19,4,13,8,18,9,2,8,6,13,6,2020-10-19 09:58:38.931
2,6,4,6,11,9,4,14,9,4,8,8,13,2020-10-19 09:58:38.968
2,4,6,2,4,11,10,7,4,6,8,2020-10-19 09:58:39.011
2,4,3,2,6,7,6,9,5,4,3,8,2020-10-19 09:58:39.051
2,8,2,4,2,8,5,4,6,2,6,6,4,6,4,2020-10-19 09:58:39.087
2,6,3,4,5,6,4,2,5,2,4,4,3,6,3,8,2020-10-19 09:58:39.124
2,6,3,4,5,8,6,3,4,3,4,3,4,3,8,2020-10-19 09:58:39.164
3,3,8,5,2,5,6,3,4,2,4,2,4,4,8,2020-10-19 09:58:39.199
4,4,2,4,8,4,2,2,2,4,2,4,5,2020-10-19 09:58:39.237
3,4,4,4,6,3,6,1,6,2,6,1,8,3,2,2020-10-19 09:58:39.272
3,6,2,8,1,2,3,8,3,2,3,2,1,8,3,2020-10-19 09:58:39.312
3,4,2,0,8,2,4,2,3,4,2,2,8,2020-10-19 09:58:39.351
2,2,1,6,1,4,2,4,3,8,4,2,1,2,2020-10-19 09:58:39.388
1,2,2,2,4,3,6,6,8,5,4,2,4,0,8,2020-10-19 09:58:39.424
2,5,8,11,8,8,6,10,2,4,2,0,4,2020-10-19 09:58:39.466
10,4,6,15,8,13,4,9,6,7,4,2,2,1,2020-10-19 09:58:39.503
18,2,17,8,30,6,15,2,15,4,7,1,8,3,4,2020-10-19 09:58:39.538
25,19,2,32,4,16,2,16,9,2,1,4,4,6,2020-10-19 09:58:39.574
34,2,24,2,47,4,16,4,17,2,17,5,6,7,2020-10-19 09:58:39.618
37,25,6,39,13,13,8,17,4,9,9,6,2020-10-19 09:58:39.663
30,6,27,49,9,4,16,8,15,6,9,6,9,6,2020-10-19 09:58:39.700
26,6,21,2,36,8,8,6,12,2,16,2,10,6,9,8,2020-10-19 09:58:39.736
31,30,50,6,9,8,21,8,22,14,4,11,2,2020-10-19 09:58:39.779
28,2,35,6,43,4,10,2,19,8,15,6,10,10,8,2020-10-19 09:58:39.820
25,32,8,44,4,10,8,30,4,18,6,7,9,2,2020-10-19 09:58:39.858
33,6,35,8,34,4,9,4,27,8,16,6,7,11,2,2020-10-19 09:58:39.898
32,2,33,2,46,6,8,2,27,4,16,6,6,2,9,8,2020-10-19 09:58:39.937
23,2,24,4,32,6,7,19,4,8,8,3,8,10,8,2020-10-19 09:58:39.974
20,2,15,24,2,5,20,2,6,4,4,9,8,2020-10-19 09:58:40.014
19,4,13,2,22,2,4,6,16,6,3,6,4,10,6,2020-10-19 09:58:40.049
8,8,8,8,18,4,4,6,14,8,3,4,3,4,8,2020-10-19 09:58:40.087
6,8,8,5,2,4,8,13,2,2,6,3,6,6,2020-10-19 09:58:40.123
5,8,7,4,3,6,4,8,13,2,2,2,4,2,2020-10-19 09:58:40.162
2,8,5,8,4,4,5,8,11,2,3,1,8,3,6,2020-10-19 09:58:40.199
3,5,4,4,4,5,6,2,8,1,6,1,8,2020-10-19 09:58:40.237
2,8,5,4,6,4,5,8,3,4,1,8,2,4,2020-10-19 09:58:40.272
2,4,2,6,3,6,4,6,5,8,3,2,2,2,6,2020-10-19 09:58:40.312
1,4,2,3,3,4,8,2,8,2,1,6,2020-10-19 09:58:40.350
1,2,1,8,2,2,2,4,2,1,6,1,6,1,4,2020-10-19 09:58:40.387
1,2,2,2,2,2,3,1,8,1,2,1,6,2020-10-19 09:58:40.424
1,2,2,1,8,2,4,3,1,4,1,1,6,2020-10-19 09:58:40.462
1,2,2,1,2,2,3,1,8,1,2,2,2020-10-19 09:58:40.500
1,8,2,2,2,2,2,2,2,2,1,8,2,2,2020-10-19 09:58:40.539
1,6,2,2,6,2,8,1,8,1,8,2,2,2,2020-10-19 09:58:40.575
1,8,3,4,10,2,3,2,3,8,4,6,3,4,2,6,2020-10-19 09:58:40.616
3,4,8,10,4,4,6,3,6,12,6,2,2,8,2020-10-19 09:58:40.653
14,21,4,15,4,10,4,13,8,25,4,11,8,6,6,2020-10-19 09:58:40.693
17,2,33,8,22,8,13,21,27,8,13,6,6,2020-10-19 09:58:40.730
28,8,35,27,16,6,21,4,27,8,14,6,8,2,2020-10-19 09:58:40.768
33,8,35,4,30,17,6,25,8,25,4,13,6,7,8,2020-10-19 09:58:40.806
41,4,39,8,32,2,16,6,26,6,21,8,11,8,2,2020-10-19 09:58:40.843
32,4,25,8,39,2,14,18,2,8,2,5,4,4,2020-10-19 09:58:40.881
35,8,25,33,6,14,4,11,8,5,2,3,8,4,4,2020-10-19 09:58:40.919
27,4,27,29,13,6,18,8,8,3,4,4,4,2020-10-19 09:58:40.959
39,4,41,4,20,13,2,12,6,10,4,6,9,2,2020-10-19 09:58:40.994
55,6,60,6,22,2,16,6,12,8,10,6,6,8,14,2,2020-10-19 09:58:41.034
57,6,60,8,17,4,14,4,13,4,10,8,7,6,16,2020-10-19 09:58:41.071
60,4,54,8,15,11,6,20,2,11,2,8,15,8,2020-10-19 09:58:41.108
59,4,58,22,2,12,2,14,4,12,7,8,15,4,2020-10-19 09:58:41.145
42,2,45,37,6,12,6,19,6,11,7,2,11,2020-10-19 09:58:41.185
25,4,34,46,4,9,8,24,6,16,6,6,6,2020-10-19 09:58:41.223
45,8,45,2,41,4,8,8,24,17,2,4,8,8,6,2020-10-19 09:58:41.260
50,2,42,6,43,2,9,2,16,4,18,5,2,9,6,2020-10-19 09:58:41.299
60,6,51,8,48,9,8,19,6,29,8,9,11,2,2020-10-19 09:58:41.336
63,6,49,2,42,2,8,4,16,30,2,8,8,11,8,2020-10-19 09:58:41.372
56,4,35,4,29,2,8,2,13,22,8,8,10,2,2020-10-19 09:58:41.410
34,23,4,28,8,8,12,22,4,8,6,6,2020-10-19 09:58:41.449
20,8,20,27,2,8,6,12,4,21,2,7,2,5,2020-10-19 09:58:41.488
8,6,5,18,4,2,7,6,2,2,2,2,2020-10-19 09:58:41.524
6,4,6,6,8,6,11,8,5,2,2,2,2,2020-10-19 09:58:41.561
5,4,7,2,7,6,7,6,10,2,3,4,2,2,2,4,2020-10-19 09:58:41.599
4,4,7,2,8,7,4,21,3,3,2,6,2020-10-19 09:58:41.639
3,4,7,4,9,7,4,20,4,3,4,3,2,4,2020-10-19 09:58:41.678
2,8,6,6,6,8,6,6,23,2,3,4,3,2,2,4,2020-10-19 09:58:41.719
2,4,4,6,6,2,21,4,2,6,2,6,1,8,2020-10-19 09:58:41.759
1,8,3,2,5,8,4,20,8,4,2,1,2,2020-10-19 09:58:41.803
0,8,2,8,4,2,4,8,18,6,3,8,1,2,0,8,2020-10-19 09:58:41.840
1,2,4,2,2,8,3,8,19,4,4,4,1,1,2020-10-19 09:58:41.885
1,2,4,4,2,2,4,4,17,2,4,2,1,2,1,4,2020-10-19 09:58:41.924
1,4,4,2,2,3,6,12,2,3,8,1,2,1,2020-10-19 09:58:41.962
1,4,4,2,2,6,3,8,12,4,2,1,2,1,2,2020-10-19 09:58:42.000
1,4,2,6,2,5,3,2,1,6,1,2,1,2020-10-19 09:58:42.043
0,8,0,6,1,6,5,8,5,6,1,4,1,8,0,8,2020-10-19 09:58:42.084
1,0,6,1,6,5,6,5,2,1,4,1,4,0,4,2020-10-19 09:58:42.122
1,4,0,6,1,2,4,6,5,6,1,2,1,4,1,2020-10-19 09:58:42.158
1,6,0,6,0,4,5,4,6,2,1,2,1,2,0,8,2020-10-19 09:58:42.195
1,4,0,4,0,6,3,2,7,6,1,6,1,2,1,2020-10-19 09:58:42.233
1,4,0,6,1,3,4,8,1,0,6,1,2,2020-10-19 09:58:42.269
1,4,0,6,1,2,2,4,4,8,1,4,0,8,1,2020-10-19 09:58:42.307
1,2,1,4,3,3,8,5,4,2,1,0,6,2020-10-19 09:58:42.344
0,8,3,2,4,2,3,6,6,6,2,2,1,4,1,2,2020-10-19 09:58:42.383
2,4,3,6,5,4,5,2,7,4,3,2,2,4,2,2,2020-10-19 09:58:42.423
3,2,4,2,10,2,8,4,13,2,8,4,2,4,2,2020-10-19 09:58:42.457
8,2,9,2,12,8,13,4,18,15,2,4,2,3,6,2020-10-19 09:58:42.495
8,6,9,20,6,14,2,21,6,15,6,4,8,2020-10-19 09:58:42.534
14,8,11,25,4,13,6,21,22,7,4,6,2020-10-19 09:58:42.573
24,6,11,8,33,4,14,6,19,2,20,6,6,8,7,2,2020-10-19 09:58:42.611
29,14,4,35,4,11,4,17,20,6,8,8,8,2020-10-19 09:58:42.654
24,6,14,6,52,9,4,15,8,17,4,8,6,8,2020-10-19 09:58:42.694
27,2,17,57,6,11,2,13,4,20,6,6,2,6,2020-10-19 09:58:42.734
25,4,14,4,54,4,13,2,16,6,14,6,5,4,5,8,2020-10-19 09:58:42.770
24,8,19,4,53,11,8,16,6,18,6,2,4,6,2020-10-19 09:58:42.809
20,18,4,59,8,14,6,15,15,2,5,2,4,6,2020-10-19 09:58:42.845
30,2,20,4,59,4,19,4,11,4,14,4,4,4,5,4,2020-10-19 09:58:42.885
41,8,18,4,52,4,16,6,14,4,11,4,4,2,6,8,2020-10-19 09:58:42.922
39,6,19,8,69,2,16,10,12,8,5,6,4,2020-10-19 09:58:42.962
30,16,8,63,8,15,10,13,6,5,6,2020-10-19 09:58:43.000
30,2,17,6,69,2,11,8,10,8,12,6,4,8,5,8,2020-10-19 09:58:43.039
20,4,16,4,56,8,9,8,11,15,4,5,6,5,4,2020-10-19 09:58:43.075
20,2,24,8,63,2,13,4,16,2,20,8,6,14,2,2020-10-19 09:58:43.115
24,26,50,15,4,15,4,19,8,8,4,14,8,2020-10-19 09:58:43.153
35,6,32,60,4,19,4,15,8,18,8,4,16,6,2020-10-19 09:58:43.190
38,29,65,8,24,4,19,4,16,8,7,8,17,6,2020-10-19 09:58:43.227
40,2,24,8,59,22,6,22,6,18,7,2,17,2020-10-19 09:58:43.267
29,2,15,2,51,2,19,4,14,2,13,2,4,4,7,2,2020-10-19 09:58:43.306
24,11,6,47,8,19,2,15,8,16,4,6,5,8,2020-10-19 09:58:43.342
11,6,2,6,35,2,15,4,16,2,14,6,3,6,3,4,2020-10-19 09:58:43.377
9,2,3,6,11,6,10,8,10,6,14,8,3,4,2,2,2020-10-19 09:58:43.415
6,2,4,6,15,2,7,4,9,4,8,8,3,2,2020-10-19 09:58:43.451
2,8,4,8,10,4,7,4,12,6,9,4,3,2,1,4,2020-10-19 09:58:43.489
2,6,6,4,9,4,6,2,16,8,5,8,2,4,1,8,2020-10-19 09:58:43.524
2,6,6,8,9,6,7,2,17,2,4,8,2,2,1,6,2020-10-19 09:58:43.562
2,5,6,10,6,8,2,17,4,6,2,2,1,6,2020-10-19 09:58:43.598
2,4,3,4,7,2,10,2,17,3,6,2,8,2,2,2020-10-19 09:58:43.638
2,4,3,2,6,2,9,4,12,2,3,2,6,2,2,2020-10-19 09:58:43.674
1,8,1,6,4,8,10,4,8,8,2,6,2,1,4,2020-10-19 09:58:43.712
1,6,1,2,4,4,9,4,7,8,2,6,2,1,4,2020-10-19 09:58:43.750
1,8,3,4,2,8,9,6,10,2,4,2,2,1,4,2020-10-19 09:58:43.789
1,6,3,6,4,8,8,4,8,8,2,4,2,1,2,2020-10-19 09:58:43.825
1,2,3,8,4,6,9,4,22,6,6,8,2,4,0,8,2020-10-19 09:58:43.864
1,2,3,8,4,8,6,8,22,8,7,6,2,6,0,8,2020-10-19 09:58:43.903
1,4,8,5,4,7,23,7,6,2,8,0,8,2020-10-19 09:58:43.942
1,2,8,5,4,7,21,2,8,4,3,2,0,8,2020-10-19 09:58:43.978
0,4,1,8,3,8,6,2,20,4,8,2,2,8,0,8,2020-10-19 09:58:44.019
1,3,2,3,2,4,8,9,3,6,2,8,1,2020-10-19 09:58:44.056
1,2,4,2,6,5,4,7,6,2,2,2,6,1,2,2020-10-19 09:58:44.092
1,8,3,6,2,7,11,8,2,6,2,6,1,6,2020-10-19 09:58:44.128
1,8,3,6,1,4,6,14,4,1,8,2,4,1,4,2020-10-19 09:58:44.168
2,4,1,2,6,14,2,3,2,8,1,2,2020-10-19 09:58:44.206
1,6,2,4,1,2,7,2,11,6,3,2,4,1,2,2020-10-19 09:58:44.244
2,2,1,8,1,4,5,6,10,4,2,8,2,4,1,2,2020-10-19 09:58:44.280
1,8,1,4,1,6,3,8,5,8,2,4,2,1,2020-10-19 09:58:44.318
1,8,1,6,2,3,6,2,2,2,6,1,6,0,8,2020-10-19 09:58:44.354
2,2,2,4,2,2,3,8,2,6,2,8,1,6,1,2,2020-10-19 09:58:44.392
2,4,2,8,2,8,2,2,3,8,3,4,2,1,2,2020-10-19 09:58:44.430
2,2,3,2,6,2,6,4,4,3,4,1,6,1,4,2020-10-19 09:58:44.469
2,8,3,6,4,2,4,8,4,5,2,3,2,2,2,2020-10-19 09:58:44.506
2,6,3,8,3,6,2,2,8,2,5,3,2,6,2020-10-19 09:58:44.544
2,6,3,6,3,6,1,6,8,4,4,8,2,8,2,4,2020-10-19 09:58:44.583
2,4,4,4,3,8,2,2,8,2,4,2,2,4,2020-10-19 09:58:44.622
4,2,3,8,4,4,1,8,8,4,5,2,4,2,2,2020-10-19 09:58:44.658
4,4,3,6,2,8,3,6,4,4,3,6,1,4,1,6,2020-10-19 09:58:44.696
4,2,3,2,2,8,3,4,4,4,6,2,2,1,4,2020-10-19 09:58:44.730
4,2,2,4,2,6,4,3,6,4,8,2,2,1,2,2020-10-19 09:58:44.771
4,8,1,2,4,4,5,4,4,4,6,2,8,1,4,2020-10-19 09:58:44.809
2,8,2,2,4,6,5,4,4,3,8,2,6,1,4,2020-10-19 09:58:44.847
2,1,4,6,4,4,8,4,8,3,2,2,1,2,2020-10-19 09:58:44.884
3,2,1,4,8,2,5,2,4,6,2,6,1,8,1,2,2020-10-19 09:58:44.923
3,6,1,6,8,8,5,2,5,6,1,6,1,4,1,2,2020-10-19 09:58:44.961
3,4,1,8,6,8,3,8,4,8,1,8,1,4,1,2,2020-10-19 09:58:44.997
3,2,2,6,8,4,4,3,8,2,4,1,6,1,2020-10-19 09:58:45.033
4,2,2,2,5,8,4,2,3,8,3,6,1,6,0,8,2020-10-19 09:58:45.072
3,8,2,2,5,2,5,5,2,4,2,1,2,0,8,2020-10-19 09:58:45.109
5,4,2,6,5,8,4,4,2,5,1,2,0,6,2020-10-19 09:58:45.146
5,8,3,5,2,4,4,3,6,6,8,1,6,0,8,2020-10-19 09:58:45.185
9,4,5,2,4,4,4,6,3,8,5,6,1,6,1,8,2020-10-19 09:58:45.227
14,6,7,3,8,3,4,2,4,5,8,1,8,2,4,2020-10-19 09:58:45.263
14,8,7,4,3,8,3,2,1,4,5,2,1,8,2,4,2020-10-19 09:58:45.303
16,8,3,4,3,4,1,6,4,2,2,2,4,2020-10-19 09:58:45.338
16,8,7,6,3,2,2,6,2,4,4,2,1,4,3,4,2020-10-19 09:58:45.376
15,8,5,2,4,2,6,2,8,5,6,2,2,2,8,2020-10-19 09:58:45.410
13,7,8,7,4,3,4,5,6,2,6,2,8,2020-10-19 09:58:45.449
13,8,8,6,3,6,4,9,2,5,3,2020-10-19 09:58:45.490
10,2,7,2,10,4,4,4,4,9,2,5,2,1,8,2020-10-19 09:58:45.528
8,6,7,4,13,8,5,2,4,2,7,2,5,1,8,2020-10-19 09:58:45.563
6,2,6,8,15,2,7,7,8,4,4,4,1,8,2020-10-19 09:58:45.602
2,8,3,4,14,2,5,6,7,8,8,2,3,8,1,6,2020-10-19 09:58:45.639
3,6,3,6,12,2,5,6,8,4,4,4,1,4,1,2,2020-10-19 09:58:45.677
4,2,5,2,12,8,5,6,7,8,4,8,1,2,1,6,2020-10-19 09:58:45.713
4,4,5,4,10,2,6,7,6,1,2,1,6,2020-10-19 09:58:45.752
5,4,6,8,5,4,4,4,6,1,8,2,2020-10-19 09:58:45.789
6,6,5,6,8,4,7,2,3,7,6,2,2,6,2020-10-19 09:58:45.828
9,2,6,8,6,7,2,2,2,7,4,2,2,2,6,2020-10-19 09:58:45.866
11,4,7,8,7,8,7,2,2,4,9,4,3,1,8,2020-10-19 09:58:45.906
13,6,7,8,7,4,6,6,2,8,9,2,3,2,2020-10-19 09:58:45.941
12,6,7,8,12,6,5,4,3,4,11,2,6,1,6,2020-10-19 09:58:45.980
11,2,8,12,5,2,4,2,10,4,2,4,0,8,2020-10-19 09:58:46.015
7,7,2,12,2,4,8,5,10,2,2,4,0,8,2020-10-19 09:58:46.054
3,4,3,8,10,2,5,5,8,4,1,8,0,8,2020-10-19 09:58:46.091
1,4,6,2,16,2,6,6,5,2,13,6,3,2,0,8,2020-10-19 09:58:46.128
1,5,8,16,8,7,4,6,9,4,2,8,0,6,2020-10-19 09:58:46.164
1,2,5,2,17,2,7,5,4,7,8,3,0,6,2020-10-19 09:58:46.204
2,2,5,6,18,6,7,8,4,8,10,8,3,8,0,8,2020-10-19 09:58:46.242
2,4,7,8,24,8,6,8,5,4,11,6,3,8,1,4,2020-10-19 09:58:46.279
2,6,6,6,21,6,6,7,2,6,2,2,8,2,2020-10-19 09:58:46.317
3,6,2,18,5,6,6,7,2,2,8,1,8,2020-10-19 09:58:46.356
3,6,4,16,2,4,9,4,7,6,3,2,1,8,2020-10-19 09:58:46.394
2,6,13,6,4,2,9,4,8,6,3,2,2,2,2020-10-19 09:58:46.432
1,8,3,6,9,2,4,8,6,7,4,2,6,2,2020-10-19 09:58:46.470
1,2,4,10,4,2,11,8,7,6,2,8,2,2020-10-19 09:58:46.510
1,4,4,6,9,6,4,6,12,2,9,2,3,4,2,2020-10-19 09:58:46.546
3,2,4,8,14,2,5,6,10,4,11,6,3,6,1,8,2020-10-19 09:58:46.583
3,4,4,8,19,4,5,2,14,17,8,13,6,3,2,2020-10-19 09:58:46.622
4,2,6,8,27,9,8,17,6,19,2,31,4,9,4,2020-10-19 09:58:46.662
4,4,5,28,13,2,14,18,8,38,2,10,2,2020-10-19 09:58:46.697
8,6,11,4,38,8,12,8,15,4,25,4,37,8,11,6,2020-10-19 09:58:46.737
7,12,8,49,15,2,15,4,29,43,14,4,2020-10-19 09:58:46.776
13,4,15,6,46,4,15,8,18,4,20,4,32,8,15,4,2020-10-19 09:58:46.812
13,8,18,41,8,14,2,16,4,18,8,28,4,12,4,2020-10-19 09:58:46.849
13,6,21,4,41,8,11,8,16,4,19,2,24,4,11,2020-10-19 09:58:46.890
10,8,15,8,37,13,4,14,11,26,4,10,4,2020-10-19 09:58:46.924
21,6,20,6,29,6,14,8,17,2,14,8,31,12,2,2020-10-19 09:58:46.962
18,6,20,8,32,4,14,8,11,30,4,32,4,9,2,2020-10-19 09:58:46.997
25,8,19,8,30,4,11,6,9,6,34,19,2,7,2020-10-19 09:58:47.040
26,4,17,8,34,8,11,4,10,37,8,20,4,8,4,2020-10-19 09:58:47.077
27,2,18,4,33,4,10,6,12,2,49,6,19,4,7,8,2020-10-19 09:58:47.112
16,4,13,44,6,8,13,2,39,2,9,6,3,4,2020-10-19 09:58:47.148
13,6,10,6,42,2,8,2,16,25,8,8,4,2,2020-10-19 09:58:47.184
7,2,9,4,43,6,10,2,20,2,21,4,10,2,2,8,2020-10-19 09:58:47.222
7,6,8,8,37,2,7,8,28,8,25,4,6,6,2,6,2020-10-19 09:58:47.261
6,8,7,2,35,4,6,8,27,8,19,5,4,3,2,2020-10-19 09:58:47.296
9,6,4,24,5,8,22,8,27,6,5,3,2020-10-19 09:58:47.336
9,6,7,4,24,2,4,4,21,2,31,8,5,2,6,2020-10-19 09:58:47.373
7,8,5,6,31,4,4,6,18,48,6,8,2,8,2020-10-19 09:58:47.411
10,8,6,2,28,6,8,7,2,40,7,2,2,8,2020-10-19 09:58:47.448
15,6,6,26,4,10,5,2,45,4,11,4,2,8,2020-10-19 09:58:47.490
12,4,6,8,18,8,8,6,7,8,40,4,12,6,3,6,2020-10-19 09:58:47.529
13,6,5,6,18,4,8,4,9,2,34,2,12,2,3,2,2020-10-19 09:58:47.567
14,4,7,16,6,6,8,8,25,6,10,2,3,6,2020-10-19 09:58:47.605
13,6,2,18,3,8,10,4,34,6,13,2,2,8,2020-10-19 09:58:47.644
8,2,7,6,26,4,4,6,12,8,23,10,2,3,8,2020-10-19 09:58:47.680
9,7,4,27,2,5,8,11,8,26,2,10,4,3,8,2020-10-19 09:58:47.719
6,6,7,2,28,4,6,8,10,2,26,8,11,8,5,2,2020-10-19 09:58:47.757
9,4,5,2,19,2,8,2,12,19,4,10,8,5,2,2020-10-19 09:58:47.796
7,4,4,4,17,6,11,6,11,11,8,7,6,6,2020-10-19 09:58:47.832
6,4,3,6,7,6,8,4,10,2,12,2,6,6,5,2020-10-19 09:58:47.872
8,8,4,6,7,2,9,4,9,2,8,4,8,7,2,2020-10-19 09:58:47.909
8,8,4,4,6,11,2,8,4,9,8,5,8,6,6,2020-10-19 09:58:47.947
9,2,6,5,13,6,7,4,11,4,6,4,12,2,2020-10-19 09:58:47.986
9,8,7,2,6,8,16,6,8,4,14,2,9,6,11,2,2020-10-19 09:58:48.025
10,2,7,8,4,18,2,13,2,28,12,4,11,2,2020-10-19 09:58:48.063
7,6,7,4,11,4,22,2,12,6,28,16,8,9,2,2020-10-19 09:58:48.101
7,4,9,2,10,20,11,24,8,13,6,8,6,2020-10-19 09:58:48.139
3,6,8,11,2,17,10,6,26,4,14,6,3,2020-10-19 09:58:48.177
3,4,7,6,9,6,12,2,8,4,23,2,15,4,3,4,2020-10-19 09:58:48.214
3,6,6,8,10,12,8,1,8,11,8,16,8,4,2,2020-10-19 09:58:48.257
3,2,4,8,7,6,7,4,1,8,9,6,13,3,6,2020-10-19 09:58:48.293
3,4,13,2,11,3,8,11,2,14,2,3,8,2020-10-19 09:58:48.329
2,6,4,12,14,6,4,2,11,6,12,2,3,8,2020-10-19 09:58:48.364
2,3,2,15,6,15,6,6,6,19,2,8,4,3,8,2020-10-19 09:58:48.403
1,6,3,4,14,13,6,7,2,16,8,4,8,3,2020-10-19 09:58:48.441
1,6,3,2,13,4,15,2,7,6,17,4,2,3,2020-10-19 09:58:48.480
2,4,3,12,11,8,7,18,6,2,8,3,4,2020-10-19 09:58:48.516
2,6,2,2,12,6,12,8,19,2,6,3,2,2020-10-19 09:58:48.555
2,2,4,8,8,8,8,6,4,10,4,2,4,2,4,2020-10-19 09:58:48.593
1,8,2,7,4,8,6,7,10,4,1,6,2,2020-10-19 09:58:48.634
1,8,2,2,7,11,4,6,2,10,6,2,4,1,8,2020-10-19 09:58:48.671
1,1,4,3,29,8,6,7,2,2,2,1,2,2020-10-19 09:58:48.710
1,1,4,1,6,31,6,2,4,1,8,1,4,2020-10-19 09:58:48.747
1,2,1,2,3,31,6,9,6,3,4,2,6,1,8,2020-10-19 09:58:48.785
1,2,2,4,8,45,4,10,6,4,4,3,1,8,2020-10-19 09:58:48.825
1,2,3,5,6,43,6,11,8,4,6,3,1,6,2020-10-19 09:58:48.863
1,4,3,6,4,26,10,4,5,3,8,1,4,2020-10-19 09:58:48.902
2,8,5,9,4,34,15,6,6,2,6,6,1,4,2020-10-19 09:58:48.945
3,8,6,4,8,35,2,14,2,15,4,14,2,6,2020-10-19 09:58:48.982
4,8,5,4,8,2,22,8,12,21,32,8,9,8,2020-10-19 09:58:49.025
6,2,5,8,8,6,19,6,10,8,26,33,10,6,2020-10-19 09:58:49.062
6,5,8,8,21,6,11,2,38,2,33,2,12,2020-10-19 09:58:49.100
4,6,4,4,6,16,6,6,38,30,6,11,6,2020-10-19 09:58:49.138
4,2,3,2,5,2,15,6,3,32,4,23,4,10,8,2020-10-19 09:58:49.178
3,3,2,3,8,20,8,10,26,6,5,8,3,4,2020-10-19 09:58:49.215
1,4,1,8,2,4,26,10,23,2,5,2,3,2,2020-10-19 09:58:49.254
1,6,1,8,4,23,2,10,21,6,5,2,2,2020-10-19 09:58:49.293
1,6,1,8,4,8,17,6,9,2,21,4,5,4,2,6,2020-10-19 09:58:49.331
1,2,1,6,4,6,19,4,8,8,22,8,5,2,2,2020-10-19 09:58:49.366
1,6,1,6,5,2,13,6,2,4,27,4,3,2,4,2020-10-19 09:58:49.407
4,2,6,6,4,10,4,2,27,7,2,7,4,2020-10-19 09:58:49.443
3,8,2,8,8,2,11,5,4,18,4,7,7,6,2020-10-19 09:58:49.482
4,2,2,8,8,4,10,8,11,2,17,6,6,6,8,2,2020-10-19 09:58:49.519
4,2,2,8,9,4,16,2,13,8,17,8,8,8,2020-10-19 09:58:49.557
5,2,8,8,6,31,6,13,4,15,10,2,9,2020-10-19 09:58:49.593
3,4,2,7,2,51,2,11,6,12,6,10,7,8,2020-10-19 09:58:49.635
5,2,4,5,2,75,10,12,6,11,8,8,2020-10-19 09:58:49.674
5,2,3,2,5,72,8,5,4,12,8,18,6,14,4,2020-10-19 09:58:49.712
5,3,3,8,67,6,4,12,6,21,4,24,4,2020-10-19 09:58:49.749
7,4,4,2,5,2,52,4,4,9,6,34,6,29,4,2020-10-19 09:58:49.790
9,6,6,31,5,9,4,34,8,31,2,2020-10-19 09:58:49.827
7,4,5,4,5,2,5,8,5,6,10,38,4,34,2020-10-19 09:58:49.867
6,4,4,6,4,6,4,4,5,12,8,33,6,26,6,2020-10-19 09:58:49.906
6,8,5,2,4,2,2,4,8,12,4,31,8,17,4,2020-10-19 09:58:49.948
3,2,4,6,4,8,1,4,4,4,12,8,19,2,10,2,2020-10-19 09:58:49.984
3,8,4,8,5,2,1,4,6,4,20,22,2,10,2,2020-10-19 09:58:50.034
4,4,6,4,2,1,6,8,19,19,4,7,2,2020-10-19 09:58:50.072
5,8,4,4,5,8,1,2,6,8,20,2,21,4,10,4,2020-10-19 09:58:50.110
5,4,3,8,6,1,6,7,15,6,18,8,9,2,2020-10-19 09:58:50.146
6,6,3,8,5,2,1,6,8,18,19,8,11,8,2020-10-19 09:58:50.184
5,1,4,4,8,1,4,6,2,13,8,18,9,6,2020-10-19 09:58:50.222
4,8,1,6,5,2,2,4,5,4,13,16,9,4,2020-10-19 09:58:50.260
3,8,2,4,4,2,6,5,8,11,4,13,5,8,2020-10-19 09:58:50.297
4,4,3,6,4,6,3,4,4,8,14,4,15,6,8,2020-10-19 09:58:50.334
3,3,2,3,6,5,6,5,12,6,11,8,4,2,2020-10-19 09:58:50.370
2,3,8,3,6,22,4,4,11,2,8,3,4,2020-10-19 09:58:50.411
2,6,3,6,3,27,8,4,4,10,2,7,4,3,8,2020-10-19 09:58:50.447
3,6,3,8,4,4,31,6,25,8,12,6,6,2,2020-10-19 09:58:50.486
3,6,2,6,3,8,37,7,22,4,10,8,6,6,2020-10-19 09:58:50.525
4,2,2,2,4,45,5,6,22,12,6,8,2020-10-19 09:58:50.563
4,2,2,2,4,6,32,8,8,23,4,11,6,2,2020-10-19 09:58:50.600
6,4,3,8,8,2,50,2,10,23,8,13,8,8,2020-10-19 09:58:50.641
5,8,21,2,10,8,50,2,7,4,7,2,7,8,5,6,2020-10-19 09:58:50.680
6,8,39,6,30,2,42,8,28,8,8,8,12,5,8,2020-10-19 09:58:50.717
28,8,45,4,48,42,4,41,4,13,8,12,8,5,6,2020-10-19 09:58:50.753
45,6,66,65,8,53,4,56,8,13,8,15,6,23,8,2020-10-19 09:58:50.795
46,8,70,4,65,31,4,64,26,17,8,47,2020-10-19 09:58:50.831
49,2,75,73,6,28,4,76,8,45,4,18,6,72,4,2020-10-19 09:58:50.867
49,71,4,65,8,46,8,57,2,51,6,16,2,96,2020-10-19 09:58:50.904
26,6,71,53,6,39,8,54,53,18,4,114,6,2020-10-19 09:58:50.943
10,54,4,41,8,35,2,42,6,58,17,8,121,2020-10-19 09:58:50.979
7,6,59,4,43,34,35,4,49,33,2,98,8,2020-10-19 09:58:51.017
5,4,53,2,34,50,2,23,8,38,40,6,89,2,2020-10-19 09:58:51.056
6,8,40,4,28,43,6,23,4,35,8,42,65,2,2020-10-19 09:58:51.094
12,2,60,2,43,2,59,2,15,6,31,2,40,48,2020-10-19 09:58:51.131
17,8,71,6,44,6,58,8,9,2,25,2,41,8,23,8,2020-10-19 09:58:51.169
23,4,61,6,41,4,83,2,12,23,4,30,44,4,2020-10-19 09:58:51.206
39,4,47,8,45,71,4,10,2,25,30,8,28,6,2020-10-19 09:58:51.260
38,48,8,57,8,68,2,7,6,21,6,27,6,42,2,2020-10-19 09:58:51.306
35,4,36,49,2,65,4,11,20,8,29,2,50,6,2020-10-19 09:58:51.355
33,4,27,2,59,4,57,6,12,6,22,4,31,8,62,6,2020-10-19 09:58:51.405
51,4,32,8,72,2,32,8,7,8,22,6,29,8,45,6,2020-10-19 09:58:51.453
57,6,35,2,69,8,28,9,2,12,20,8,70,6,2020-10-19 09:58:51.505
68,8,57,4,53,4,19,2,16,6,18,8,29,70,8,2020-10-19 09:58:51.553
67,66,64,2,3,6,19,2,31,8,29,2,70,2,2020-10-19 09:58:51.604
78,8,84,4,70,8,26,6,24,4,32,6,24,4,58,6,2020-10-19 09:58:51.654
57,8,87,6,58,4,37,2,26,8,48,2,34,63,2020-10-19 09:58:51.696
34,6,82,71,2,39,6,45,2,57,6,58,6,51,2020-10-19 09:58:51.744
34,6,57,6,90,6,40,6,55,52,2,56,4,41,2,2020-10-19 09:58:51.791
40,6,37,4,71,8,62,4,54,4,53,4,75,4,36,8,2020-10-19 09:58:51.832
40,8,17,8,70,2,57,72,8,65,6,97,2,60,6,2020-10-19 09:58:51.878
45,8,26,4,82,8,52,8,82,6,51,2,82,4,60,4,2020-10-19 09:58:51.921
46,8,26,6,69,6,55,6,67,2,41,4,63,2,50,2,2020-10-19 09:58:51.960
41,8,44,72,8,80,2,63,8,38,4,67,8,70,2,2020-10-19 09:58:52.001
51,6,47,4,85,2,81,8,65,8,22,2,47,88,2020-10-19 09:58:52.042
50,6,44,6,84,2,70,6,41,4,5,8,23,8,87,8,2020-10-19 09:58:52.085
42,8,26,8,71,8,89,2,31,4,7,8,22,96,2,2020-10-19 09:58:52.123
57,28,8,84,4,87,6,36,22,2,28,8,113,6,2020-10-19 09:58:52.164
72,6,14,2,84,8,87,4,35,4,36,8,36,2,99,2,2020-10-19 09:58:52.200
65,4,35,6,86,4,82,48,4,61,4,58,8,101,8,2020-10-19 09:58:52.240
75,6,53,88,8,74,72,8,86,8,83,2,95,8,2020-10-19 09:58:52.280
99,4,77,8,96,6,60,8,96,107,108,4,76,4,2020-10-19 09:58:52.318
108,6,95,8,88,82,6,104,8,110,2,118,71,8,2020-10-19 09:58:52.353
108,4,107,77,2,65,4,115,4,119,2,124,8,81,8,2020-10-19 09:58:52.390
104,4,83,6,83,6,50,6,94,4,96,109,69,2020-10-19 09:58:52.428
85,4,67,4,65,8,50,4,89,80,6,92,8,57,4,2020-10-19 09:58:52.467
61,6,44,6,58,6,38,2,65,2,55,69,2,59,2020-10-19 09:58:52.504
39,6,25,6,49,8,12,8,50,2,39,51,2,50,8,2020-10-19 09:58:52.543
20,2,12,2,36,6,6,4,28,19,34,6,32,8,2020-10-19 09:58:52.580
15,8,10,8,11,8,6,8,30,4,17,4,25,2,27,4,2020-10-19 09:58:52.621
10,8,5,4,13,4,14,8,10,2,22,6,21,2020-10-19 09:58:52.661
9,8,5,6,3,8,15,2,15,2,10,8,24,8,21,8,2020-10-19 09:58:52.701
7,6,5,8,6,21,12,11,4,30,6,21,2,2020-10-19 09:58:52.738
8,2,5,2,4,6,20,2,12,2,7,8,22,2,21,2,2020-10-19 09:58:52.778
7,8,5,8,4,20,2,10,4,8,22,6,15,8,2020-10-19 09:58:52.817
8,2,5,3,4,15,5,8,5,6,17,14,6,2020-10-19 09:58:52.855
7,6,7,6,5,4,15,2,3,8,7,13,8,12,2020-10-19 09:58:52.895
7,4,8,2,4,6,10,4,6,4,2,4,4,6,8,2020-10-19 09:58:52.934
4,2,7,8,5,6,9,8,5,6,4,4,4,2,5,6,2020-10-19 09:58:52.971
3,4,7,7,6,8,7,6,6,2,8,4,2,2020-10-19 09:58:53.011
2,8,6,2,6,8,8,6,7,6,5,8,9,2,4,4,2020-10-19 09:58:53.048
3,2,5,8,5,8,9,7,8,6,2,10,8,5,6,2020-10-19 09:58:53.085
3,4,5,7,14,8,12,8,7,4,12,2,4,8,2020-10-19 09:58:53.122
2,8,5,6,6,4,17,10,6,6,8,13,6,4,2020-10-19 09:58:53.164
2,8,5,4,6,2,16,6,7,4,5,4,15,4,2020-10-19 09:58:53.201
2,8,5,8,6,8,15,6,10,6,5,4,13,4,3,6,2020-10-19 09:58:53.241
2,4,4,8,6,8,16,8,11,6,4,15,2,3,4,2020-10-19 09:58:53.278
2,4,4,2,4,4,12,8,5,8,7,4,15,8,3,6,2020-10-19 09:58:53.320
2,4,3,5,2,16,2,9,10,2,20,6,4,2,2020-10-19 09:58:53.360
2,6,3,4,4,18,6,11,2,9,6,19,6,4,2020-10-19 09:58:53.400
3,6,3,6,3,6,20,6,8,6,11,6,22,2,6,2,2020-10-19 09:58:53.438
4,4,5,2,4,8,19,2,9,9,8,23,4,7,2,2020-10-19 09:58:53.478
4,4,8,4,6,16,8,10,8,6,24,6,7,2020-10-19 09:58:53.515
4,8,5,5,6,15,2,9,7,20,2,6,4,2020-10-19 09:58:53.554
4,6,4,6,6,2,19,8,6,4,7,19,8,6,6,2020-10-19 09:58:53.591
4,6,4,6,7,8,19,6,10,2,5,2,28,8,4,2020-10-19 09:58:53.631
3,4,1,8,5,8,17,6,10,2,6,27,2,7,2,2020-10-19 09:58:53.669
4,2,6,6,4,19,2,9,8,7,2,25,4,7,4,2020-10-19 09:58:53.711
3,3,6,5,4,16,6,8,4,6,4,23,8,6,6,2020-10-19 09:58:53.751
3,3,8,4,6,10,4,9,7,20,6,8,2020-10-19 09:58:53.789
1,8,3,6,4,2,7,2,6,7,2,9,2,3,6,2020-10-19 09:58:53.827
2,8,5,8,4,4,10,8,6,4,5,2,8,7,2020-10-19 09:58:53.869
2,4,5,6,3,6,12,8,5,4,2,6,2,7,4,2020-10-19 09:58:53.906
2,4,4,6,4,11,6,4,5,2,10,2,7,2,2020-10-19 09:58:53.947
5,2,8,2,5,4,11,4,4,4,4,2,15,10,4,2020-10-19 09:58:53.988
6,7,6,5,6,16,6,7,4,7,6,20,2,11,2,2020-10-19 09:58:54.030
5,6,6,5,13,8,7,6,7,6,20,10,2020-10-19 09:58:54.069
5,4,5,6,6,4,11,6,8,8,8,25,2,8,6,2020-10-19 09:58:54.110
6,6,8,6,12,6,8,8,8,2,28,4,11,2020-10-19 09:58:54.150
4,8,3,4,4,8,18,8,11,4,8,8,30,8,6,2020-10-19 09:58:54.189
5,8,4,3,4,18,9,4,6,2,29,8,9,6,2020-10-19 09:58:54.230
6,2,5,8,4,19,11,6,6,2,30,8,8,2,2020-10-19 09:58:54.270
8,4,6,8,4,18,13,6,5,2,37,2,12,8,2020-10-19 09:58:54.309
7,6,7,2,3,6,16,4,14,2,4,4,34,4,11,6,2020-10-19 09:58:54.351
6,2,8,4,8,11,11,3,6,33,8,11,4,2020-10-19 09:58:54.390
4,8,8,5,2,9,6,10,2,2,8,31,4,9,6,2020-10-19 09:58:54.431
4,6,5,6,5,7,8,7,8,3,30,4,10,6,2020-10-19 09:58:54.469
4,4,4,4,8,6,7,8,6,1,8,24,6,4,2020-10-19 09:58:54.508
5,2,3,8,9,2,7,4,5,2,4,21,6,6,6,2020-10-19 09:58:54.548
6,3,10,2,6,4,7,8,4,8,20,5,6,2020-10-19 09:58:54.587
6,6,3,4,12,2,4,6,8,2,4,8,23,8,5,6,2020-10-19 09:58:54.626
6,8,4,2,12,6,6,6,7,6,4,6,21,8,6,8,2020-10-19 09:58:54.668
6,5,2,7,8,6,6,7,2,5,2,17,2,9,2,2020-10-19 09:58:54.706
6,6,5,6,4,6,8,6,6,6,6,22,6,12,4,2020-10-19 09:58:54.746
5,6,4,8,4,6,8,5,6,4,4,20,13,2,2020-10-19 09:58:54.784
5,4,6,1,6,4,4,5,6,15,6,13,6,2020-10-19 09:58:54.825
4,2,4,2,0,6,2,4,4,6,2,14,2,10,6,2020-10-19 09:58:54.863
3,2,3,4,0,8,1,6,4,8,5,8,13,8,8,6,2020-10-19 09:58:54.904
2,2,4,1,6,1,4,4,6,4,6,6,2,4,2,2020-10-19 09:58:54.943
2,4,2,4,1,6,1,4,3,5,5,4,3,4,2020-10-19 09:58:54.984
2,1,4,2,2,1,8,3,3,4,3,2,2,2020-10-19 09:58:55.021
2,2,1,4,2,2,1,8,4,6,3,6,5,4,1,6,2020-10-19 09:58:55.061
2,2,1,2,2,2,2,4,4,6,3,5,4,1,4,2020-10-19 09:58:55.099
2,4,1,2,2,8,8,8,2,7,4,2,6,2020-10-19 09:58:55.142
2,1,2,4,2,2,14,6,2,8,6,2,3,4,2020-10-19 09:58:55.179
2,8,1,2,4,2,2,18,3,7,4,4,2020-10-19 09:58:55.218
3,6,1,6,5,8,2,2,18,8,3,2,7,6,5,4,2020-10-19 09:58:55.258
4,2,6,2,3,2,21,4,4,6,11,5,2020-10-19 09:58:55.297
4,2,6,2,8,17,6,6,2,10,4,6,2020-10-19 09:58:55.335
4,2,2,5,4,4,6,15,2,5,10,6,6,2020-10-19 09:58:55.376
3,8,3,3,4,2,12,8,7,4,11,4,7,8,2020-10-19 09:58:55.416
3,2,2,6,5,10,6,8,2,11,2,13,6,2020-10-19 09:58:55.454
3,4,1,6,2,4,6,8,4,7,8,7,2,16,6,2020-10-19 09:58:55.495
5,4,3,3,5,8,8,4,8,8,8,4,23,4,2020-10-19 09:58:55.536
13,4,4,8,3,8,6,7,2,11,6,20,33,2,2020-10-19 09:58:55.572
14,4,4,4,6,2,6,6,9,18,2,36,4,2020-10-19 09:58:55.612
14,2,4,8,2,6,5,6,5,6,7,6,17,2,41,2,2020-10-19 09:58:55.652
16,6,2,3,4,4,6,8,6,18,8,48,4,2020-10-19 09:58:55.691
14,2,5,2,2,4,6,2,6,16,8,41,8,2020-10-19 09:58:55.731
6,6,4,4,2,4,2,4,5,6,3,2,5,2,31,6,2020-10-19 09:58:55.771
5,8,5,6,3,2,3,6,4,5,2,6,8,26,2,2020-10-19 09:58:55.806
5,4,9,8,5,2,4,4,9,2,5,2,7,15,2,2020-10-19 09:58:55.844
4,6,13,6,4,4,4,14,2,4,7,4,7,2020-10-19 09:58:55.881
4,13,2,7,4,5,4,14,8,4,4,6,8,6,2020-10-19 09:58:55.920
3,2,12,8,6,2,5,13,6,4,2,9,6,6,8,2020-10-19 09:58:55.956
2,8,11,4,5,2,4,4,12,2,3,8,10,6,6,8,2020-10-19 09:58:55.996
2,8,6,8,3,4,3,9,4,3,2,8,8,6,2,2020-10-19 09:58:56.035
0,6,3,2,10,4,4,2,5,6,3,4,6,8,4,2,2020-10-19 09:58:56.075
15,6,26,6,16,24,24,6,14,4,16,8,5,4,2020-10-19 09:58:56.112
31,2,47,6,39,46,37,6,37,6,37,6,17,2020-10-19 09:58:56.153
40,2,48,47,2,70,59,6,59,6,55,6,39,2,2020-10-19 09:58:56.187
54,6,55,6,47,94,8,63,6,66,2,62,8,42,2020-10-19 09:58:56.225
54,8,55,8,45,2,119,62,2,68,6,65,2,51,6,2020-10-19 09:58:56.264
58,6,31,8,61,8,109,2,43,6,58,55,2,50,6,2020-10-19 09:58:56.307
47,4,31,42,2,103,2,29,8,41,8,31,2,40,4,2020-10-19 09:58:56.344
39,4,43,4,38,104,6,15,4,32,22,17,8,2020-10-19 09:58:56.383
25,6,59,43,4,90,6,22,4,37,6,25,31,2020-10-19 09:58:56.423
25,6,81,2,37,6,65,8,37,45,28,4,28,2020-10-19 09:58:56.465
28,8,105,4,27,2,79,6,37,8,64,4,50,2,27,6,2020-10-19 09:58:56.504
47,106,24,6,64,4,58,6,80,6,59,25,8,2020-10-19 09:58:56.542
64,4,109,6,22,42,2,52,2,79,61,6,44,4,2020-10-19 09:58:56.581
72,2,103,4,42,37,8,48,2,76,2,71,8,36,4,2020-10-19 09:58:56.621
74,2,88,2,46,8,38,8,36,67,4,91,2,30,2020-10-19 09:58:56.657
56,2,66,2,43,4,16,6,38,2,50,2,77,4,28,8,2020-10-19 09:58:56.698
34,6,55,57,6,15,8,20,6,28,4,68,6,28,6,2020-10-19 09:58:56.738
31,6,44,8,69,2,30,20,4,18,6,55,8,27,2,2020-10-19 09:58:56.778
37,2,29,4,44,6,34,2,14,8,9,8,40,8,33,2,2020-10-19 09:58:56.816
60,6,27,6,53,6,57,8,18,2,10,8,19,56,6,2020-10-19 09:58:56.857
74,4,25,6,66,6,66,6,17,6,12,4,18,4,81,6,2020-10-19 09:58:56.896
84,4,21,6,68,2,78,4,14,4,12,20,2,89,4,2020-10-19 09:58:56.937
72,2,28,2,63,6,68,4,19,2,13,2,29,2,73,6,2020-10-19 09:58:56.976
64,8,27,8,79,75,4,18,4,14,8,26,2,62,2,2020-10-19 09:58:57.017
61,4,24,8,68,8,62,6,12,8,12,2,23,52,2020-10-19 09:58:57.056
68,8,26,2,53,6,56,15,4,7,6,15,6,35,6,2020-10-19 09:58:57.097
60,25,6,50,2,45,4,22,8,6,8,14,4,34,2020-10-19 09:58:57.136
63,2,15,2,46,6,49,4,17,8,3,4,6,32,8,2020-10-19 09:58:57.175
74,6,15,6,37,31,4,18,4,1,6,2,4,31,8,2020-10-19 09:58:57.213
63,2,16,8,43,4,38,4,27,8,3,6,6,6,43,4,2020-10-19 09:58:57.252
61,8,26,40,8,34,4,36,4,6,7,4,36,2020-10-19 09:58:57.289
66,21,8,29,8,37,4,29,4,6,7,8,29,6,2020-10-19 09:58:57.330
78,2,21,26,4,27,2,31,4,8,8,2,32,4,2020-10-19 09:58:57.368
67,20,22,8,28,8,39,4,14,4,13,40,6,2020-10-19 09:58:57.409
61,15,6,12,6,14,29,13,6,10,16,8,2020-10-19 09:58:57.449
49,2,5,4,10,4,13,2,18,8,17,4,19,4,24,8,2020-10-19 09:58:57.486
45,8,4,4,8,8,12,2,18,8,23,4,21,6,35,6,2020-10-19 09:58:57.522
52,2,10,8,11,31,4,41,4,48,8,46,2,58,2020-10-19 09:58:57.560
58,6,10,2,9,2,32,8,35,8,41,8,45,4,60,6,2020-10-19 09:58:57.596
58,4,11,8,4,28,6,42,4,46,6,50,8,64,2,2020-10-19 09:58:57.639
69,2,14,8,7,6,41,58,6,61,60,6,79,6,2020-10-19 09:58:57.676
80,8,16,7,4,42,2,66,8,63,4,64,8,87,2020-10-19 09:58:57.718
58,2,11,4,2,26,4,48,2,48,8,50,2,64,2,2020-10-19 09:58:57.756
53,8,12,6,3,2,31,57,6,60,60,8,64,2,2020-10-19 09:58:57.792
55,8,14,4,4,4,36,4,59,63,4,62,66,8,2020-10-19 09:58:57.833
42,6,10,4,4,6,28,49,4,54,2,52,50,2020-10-19 09:58:57.871
38,8,8,6,4,8,28,46,48,50,2,44,6,2020-10-19 09:58:57.906
40,8,6,4,5,6,25,2,45,4,43,8,45,4,50,2020-10-19 09:58:57.949
44,6,8,2,11,6,20,6,46,2,40,2,45,49,4,2020-10-19 09:58:57.986
41,6,7,8,10,2,17,41,4,34,37,45,8,2020-10-19 09:58:58.024
35,4,8,2,8,2,20,8,42,6,40,39,2,46,2020-10-19 09:58:58.060
38,6,10,4,8,6,19,8,39,8,43,46,6,35,6,2020-10-19 09:58:58.099
45,2,12,2,8,8,29,6,45,6,45,2,48,2,34,4,2020-10-19 09:58:58.135
57,8,9,6,7,39,2,41,8,39,8,36,31,4,2020-10-19 09:58:58.174
67,4,9,8,13,4,57,4,53,6,40,2,39,42,4,2020-10-19 09:58:58.213
64,2,11,4,17,8,55,44,4,25,2,28,37,4,2020-10-19 09:58:58.253
70,8,17,6,21,6,55,45,2,20,6,16,4,34,8,2020-10-19 09:58:58.289
72,18,22,2,51,4,35,11,6,9,30,4,2020-10-19 09:58:58.328
48,6,18,8,24,64,2,31,6,7,8,7,8,30,8,2020-10-19 09:58:58.368
53,17,8,24,62,28,8,4,2,4,8,18,4,2020-10-19 09:58:58.407
69,2,20,2,19,8,74,41,6,5,4,5,6,28,8,2020-10-19 09:58:58.445
63,6,15,6,16,6,85,6,63,8,7,4,6,48,4,2020-10-19 09:58:58.485
76,6,15,14,8,81,77,20,4,6,6,59,2,2020-10-19 09:58:58.522
96,15,8,10,4,61,91,8,38,2,30,4,75,4,2020-10-19 09:58:58.560
82,17,4,2,46,4,104,2,59,4,41,8,88,8,2020-10-19 09:58:58.597
89,13,6,6,6,35,2,109,8,64,8,41,8,85,8,2020-10-19 09:58:58.638
80,2,12,2,6,2,33,4,95,2,65,4,65,6,86,8,2020-10-19 09:58:58.674
58,4,16,8,15,2,44,8,84,6,72,4,72,4,88,2020-10-19 09:58:58.712
38,4,17,18,8,44,6,65,4,66,2,57,6,71,6,2020-10-19 09:58:58.751
60,4,24,6,43,2,66,4,63,2,70,55,4,81,2,2020-10-19 09:58:58.789
62,2,33,2,65,8,84,8,67,67,8,76,6,95,8,2020-10-19 09:58:58.825
61,8,33,2,70,8,77,6,56,6,66,8,60,4,80,6,2020-10-19 09:58:58.863
76,4,30,2,82,4,82,6,62,8,67,67,6,85,2020-10-19 09:58:58.903
94,6,36,100,2,100,2,63,6,64,4,58,2,93,2,2020-10-19 09:58:58.942
89,8,42,2,82,2,80,2,48,6,48,6,69,4,84,4,2020-10-19 09:58:58.979
89,4,46,6,82,4,80,4,46,4,47,62,6,84,6,2020-10-19 09:58:59.020
103,49,6,77,2,84,4,64,2,51,8,68,90,2,2020-10-19 09:58:59.058
98,6,54,72,2,76,6,67,8,35,8,60,6,83,8,2020-10-19 09:58:59.097
100,4,52,8,74,6,75,4,77,6,37,6,76,81,2020-10-19 09:58:59.137
96,48,82,8,87,6,88,4,30,8,59,4,82,8,2020-10-19 09:58:59.176
96,6,43,2,81,8,87,6,66,8,32,4,43,6,79,6,2020-10-19 09:58:59.215
89,4,45,2,91,86,6,63,44,37,2,73,2020-10-19 09:58:59.257
75,8,39,77,4,82,6,49,42,8,40,63,2020-10-19 09:58:59.294
61,6,39,6,61,4,71,4,43,55,6,40,68,8,2020-10-19 09:58:59.338
58,8,43,2,51,60,2,32,62,2,54,66,6,2020-10-19 09:58:59.374
35,6,36,2,33,39,6,32,76,8,64,52,8,2020-10-19 09:58:59.416
31,6,48,6,30,2,37,8,36,4,65,8,64,4,62,2020-10-19 09:58:59.456
40,8,49,42,6,30,2,46,8,70,6,63,70,2020-10-19 09:58:59.493
40,2,41,2,45,32,8,47,59,2,52,4,51,2020-10-19 09:58:59.529
30,27,2,49,4,34,4,41,53,4,35,2,35,2020-10-19 09:58:59.569
29,4,28,2,43,31,4,41,34,4,24,4,27,2020-10-19 09:58:59.608
21,8,13,6,39,6,28,22,2,27,4,16,6,13,6,2020-10-19 09:58:59.651
17,2,16,4,38,6,37,6,22,2,24,2,14,6,3,8,2020-10-19 09:58:59.690
12,4,18,8,31,4,31,2,18,2,17,11,6,16,2020-10-19 09:58:59.732
11,6,21,8,27,29,2,20,2,20,2,12,2,17,6,2020-10-19 09:58:59.770
12,6,21,6,38,4,35,34,6,37,8,24,24,2,2020-10-19 09:58:59.809
24,8,19,2,57,4,51,2,48,2,47,4,32,4,27,6,2020-10-19 09:58:59.845
29,2,16,56,8,46,45,8,67,39,2,37,6,2020-10-19 09:58:59.886
38,4,20,8,56,40,2,51,6,78,2,47,4,25,6,2020-10-19 09:58:59.924
55,6,28,57,4,41,50,4,84,8,54,40,2,2020-10-19 09:58:59.963
54,6,30,2,61,2,36,8,38,69,6,56,8,43,2,2020-10-19 09:59:00.005
43,2,32,8,41,2,18,8,30,59,4,50,8,41,8,2020-10-19 09:59:00.048
35,2,35,8,29,2,14,6,23,37,39,35,4,2020-10-19 09:59:00.088
50,36,4,25,4,17,25,8,24,8,35,8,54,6,2020-10-19 09:59:00.130
42,4,25,6,41,8,11,4,30,8,12,2,38,2,63,4,2020-10-19 09:59:00.171
41,2,39,6,27,8,6,33,8,12,4,43,6,71,4,2020-10-19 09:59:00.211
43,8,41,2,49,6,6,8,37,6,18,4,46,2,90,2020-10-19 09:59:00.248
61,51,54,2,6,4,54,19,8,45,8,104,6,2020-10-19 09:59:00.288
50,6,62,4,58,4,3,2,46,8,25,6,42,6,93,2020-10-19 09:59:00.325
42,2,65,4,39,1,8,52,6,27,2,32,8,69,2,2020-10-19 09:59:00.362
48,2,48,39,4,1,2,47,2,24,2,13,4,55,6,2020-10-19 09:59:00.401
46,44,16,1,45,18,2,8,4,56,4,2020-10-19 09:59:00.439
29,2,30,4,12,4,0,8,27,6,16,6,14,8,43,2020-10-19 09:59:00.476
14,14,8,10,4,8,2,37,6,15,8,10,6,49,4,2020-10-19 09:59:00.516
10,6,14,8,4,19,31,24,8,10,8,48,8,2020-10-19 09:59:00.555
25,6,16,7,6,19,6,30,6,25,8,12,2,55,4,2020-10-19 09:59:00.595
35,6,18,8,9,2,21,2,23,8,31,8,12,8,34,8,2020-10-19 09:59:00.635
36,4,19,2,7,8,38,6,23,4,32,8,5,4,29,6,2020-10-19 09:59:00.675
55,4,16,8,5,8,35,6,30,4,26,28,2,29,4,2020-10-19 09:59:00.711
75,4,15,6,7,4,50,4,49,4,27,8,36,53,8,2020-10-19 09:59:00.754
57,22,6,19,6,63,53,4,47,4,43,4,52,8,2020-10-19 09:59:00.798
53,6,18,2,41,2,84,75,63,8,67,4,57,2,2020-10-19 09:59:00.839
74,41,6,53,91,6,98,8,67,2,92,2,64,2,2020-10-19 09:59:00.879
77,6,62,6,77,4,104,100,6,85,4,75,57,6,2020-10-19 09:59:00.921
76,6,68,6,94,6,95,6,97,4,76,68,6,55,4,2020-10-19 09:59:00.961
98,8,82,8,107,8,83,4,118,57,4,84,6,62,8,2020-10-19 09:59:00.996
100,8,90,4,100,8,60,8,121,4,36,6,59,2,57,6,2020-10-19 09:59:01.035
78,86,104,2,36,117,2,32,38,2,69,6,2020-10-19 09:59:01.077
55,8,74,4,89,19,2,111,2,9,8,58,73,6,2020-10-19 09:59:01.114
36,6,73,6,76,6,2,2,113,6,2,67,8,51,4,2020-10-19 09:59:01.156
11,4,49,52,2,1,88,2,6,4,48,2,34,4,2020-10-19 09:59:01.196
1,43,8,40,1,73,6,5,4,64,6,44,2020-10-19 09:59:01.236
0,8,23,25,6,0,8,54,4,6,63,2,25,4,2020-10-19 09:59:01.276
0,4,12,16,2,0,8,36,2,5,2,39,2,13,4,2020-10-19 09:59:01.318
0,4,4,8,9,0,8,12,2,6,6,27,2,13,2020-10-19 09:59:01.358
0,4,4,6,8,1,11,6,4,22,2,13,8,2020-10-19 09:59:01.396
0,6,1,2,1,0,6,4,4,6,2,3,8,2020-10-19 09:59:01.437
0,8,2,1,2,1,0,6,4,8,4,6,6,8,2020-10-19 09:59:01.475
0,8,3,4,1,8,1,0,4,5,3,8,13,8,2020-10-19 09:59:01.514
0,8,3,8,2,8,1,0,4,4,4,2,15,6,2020-10-19 09:59:01.554
0,8,3,6,4,2,1,0,6,4,8,4,6,21,4,2020-10-19 09:59:01.593
0,8,4,6,6,1,6,0,8,5,4,4,8,21,8,2020-10-19 09:59:01.630
0,8,4,4,8,4,2,1,5,3,6,25,4,2020-10-19 09:59:01.672
1,2,3,8,11,3,2,0,8,4,2,3,18,6,2020-10-19 09:59:01.715
1,2,4,10,4,6,0,8,3,6,3,19,4,2020-10-19 09:59:01.755
3,4,2,10,6,8,0,8,2,6,1,8,14,6,2020-10-19 09:59:01.800
4,3,8,8,8,6,2,1,1,8,14,2,2020-10-19 09:59:01.849
4,4,2,4,6,2,9,6,4,6,1,4,2,8,8,2020-10-19 09:59:01.896
4,2,1,8,4,2,8,6,7,4,1,8,2,8,8,2,2020-10-19 09:59:01.938
4,8,1,4,4,2,6,7,4,2,4,3,4,9,4,2020-10-19 09:59:01.981
3,2,1,2,3,4,8,2,12,6,2,4,4,8,6,2020-10-19 09:59:02.024
2,8,1,2,3,4,7,11,6,2,6,3,6,12,8,2020-10-19 09:59:02.062
2,4,1,4,4,6,6,16,4,1,8,3,8,13,8,2020-10-19 09:59:02.101
3,4,2,2,6,7,8,14,6,1,2,6,14,2,2020-10-19 09:59:02.144
3,4,2,4,8,7,4,17,2,0,8,7,2,9,8,2020-10-19 09:59:02.183
3,2,1,6,4,6,5,15,1,8,7,9,4,2020-10-19 09:59:02.226
4,6,1,4,5,2,4,4,16,1,8,6,8,8,6,2020-10-19 09:59:02.266
5,2,1,2,6,4,4,8,9,2,2,6,14,4,7,4,2020-10-19 09:59:02.306
4,2,3,8,6,8,4,13,6,3,4,16,6,7,8,2020-10-19 09:59:02.345
5,4,13,4,22,2,6,2,11,8,3,6,33,8,11,2,2020-10-19 09:59:02.387
8,6,27,2,25,5,4,16,6,3,6,37,6,17,8,2020-10-19 09:59:02.429
7,6,32,33,4,6,6,17,4,3,4,45,6,16,6,2020-10-19 09:59:02.467
11,54,42,8,6,2,25,4,2,4,44,6,17,2020-10-19 09:59:02.508
14,76,63,7,26,4,2,49,2,19,4,2020-10-19 09:59:02.549
15,2,70,46,4,6,2,27,8,1,6,31,8,19,6,2020-10-19 09:59:02.590
13,58,4,45,6,6,4,22,2,0,6,29,8,12,6,2020-10-19 09:59:02.629
12,2,54,4,36,8,4,8,21,8,1,2,22,10,6,2020-10-19 09:59:02.668
13,6,35,6,25,8,3,8,14,2,2,15,8,9,2,2020-10-19 09:59:02.707
14,2,12,5,8,2,2,9,2,2,8,10,2020-10-19 09:59:02.746
13,2,13,2,8,2,0,8,9,4,3,6,6,9,2020-10-19 09:59:02.786
14,6,13,6,6,8,1,7,6,3,4,8,8,6,2020-10-19 09:59:02.826
17,6,13,4,6,4,1,8,7,2,8,5,8,20,8,2020-10-19 09:59:02.863
17,8,12,6,8,3,2,6,4,3,6,4,8,21,2020-10-19 09:59:02.903
21,2,10,8,9,6,3,8,5,8,3,6,19,2,2020-10-19 09:59:02.943
26,2,5,8,8,4,4,3,6,2,2,8,20,2020-10-19 09:59:02.985
27,2,3,8,8,4,2,5,2,4,8,8,23,6,2020-10-19 09:59:03.026
33,6,8,9,2,3,8,4,4,3,4,7,6,12,6,2020-10-19 09:59:03.065
30,6,2,6,8,3,2,5,4,2,4,8,2,12,6,2020-10-19 09:59:03.105
23,2,6,4,4,6,2,8,7,4,2,4,5,8,10,8,2020-10-19 09:59:03.146
19,4,8,6,3,2,6,7,6,3,5,6,10,4,2020-10-19 09:59:03.186
18,8,8,2,6,4,6,6,3,4,5,4,14,2,2020-10-19 09:59:03.227
11,6,6,1,6,3,4,6,2,2,7,8,12,8,2020-10-19 09:59:03.266
10,6,2,2,2,3,4,8,2,2,6,8,14,2,2020-10-19 09:59:03.306
9,6,6,6,2,6,2,8,2,6,2,6,7,16,8,2020-10-19 09:59:03.349
7,6,5,2,4,3,4,4,6,2,6,6,4,18,8,2020-10-19 09:59:03.391
4,8,6,2,6,3,2,12,2,2,4,6,11,6,2020-10-19 09:59:03.436
3,2,3,4,2,6,3,4,14,6,2,6,4,6,12,8,2020-10-19 09:59:03.475
3,6,2,4,2,4,3,6,16,2,8,4,6,15,2020-10-19 09:59:03.514
5,2,8,3,5,26,4,2,8,4,6,11,6,2020-10-19 09:59:03.556
4,4,2,8,3,4,6,24,4,4,2,3,7,2020-10-19 09:59:03.596
4,2,2,4,2,8,3,4,16,4,5,6,2,4,8,8,2020-10-19 09:59:03.636
3,8,2,2,2,4,3,2,13,8,5,2,1,8,10,2,2020-10-19 09:59:03.676
3,2,2,8,2,2,3,2,14,2,4,8,3,2,7,6,2020-10-19 09:59:03.716
3,2,6,1,2,1,8,3,6,4,6,3,2,8,8,2020-10-19 09:59:03.757
3,3,6,1,8,1,4,4,8,8,8,3,2,9,8,2020-10-19 09:59:03.798
4,3,6,2,1,6,5,6,10,8,4,2,9,2,2020-10-19 09:59:03.836
4,4,4,2,6,2,2,6,2,13,6,5,7,6,2020-10-19 09:59:03.876
4,6,3,6,8,6,1,2,9,6,13,4,3,6,6,4,2020-10-19 09:59:03.914
4,3,8,8,1,6,10,8,15,2,3,4,6,2020-10-19 09:59:03.953
3,4,2,2,8,2,1,6,11,6,10,2,3,6,5,6,2020-10-19 09:59:03.994
3,4,3,3,6,1,8,12,7,5,4,5,2020-10-19 09:59:04.031
2,6,2,9,4,26,6,19,5,4,2,5,2020-10-19 09:59:04.070
21,8,17,8,8,6,47,23,6,4,6,9,16,2,2020-10-19 09:59:04.110
32,4,29,4,18,68,36,4,9,8,27,6,21,6,2020-10-19 09:59:04.148
33,4,43,8,19,8,72,8,41,2,20,4,32,6,20,6,2020-10-19 09:59:04.195
32,8,63,8,21,4,72,6,43,4,25,30,8,19,8,2020-10-19 09:59:04.234
54,4,88,6,15,8,47,4,38,45,6,40,6,40,6,2020-10-19 09:59:04.274
35,2,79,6,18,6,31,2,28,6,47,4,52,6,50,2020-10-19 09:59:04.315
46,6,70,8,34,4,23,2,21,8,53,6,38,4,66,6,2020-10-19 09:59:04.356
67,79,4,42,2,43,6,30,4,52,8,37,4,84,4,2020-10-19 09:59:04.397
92,64,8,41,2,46,4,43,8,57,4,47,109,4,2020-10-19 09:59:04.435
81,41,2,41,2,47,2,63,2,40,52,6,110,2,2020-10-19 09:59:04.477
104,54,4,62,48,4,74,2,46,2,53,2,103,4,2020-10-19 09:59:04.515
96,2,55,2,40,8,38,2,88,8,34,2,58,6,82,4,2020-10-19 09:59:04.555
77,6,36,8,39,38,2,88,28,4,67,8,65,2020-10-19 09:59:04.596
57,35,2,46,55,80,2,28,4,66,40,2020-10-19 09:59:04.644
59,4,59,4,71,2,68,74,48,2,65,8,23,8,2020-10-19 09:59:04.683
61,4,63,8,54,4,84,8,68,4,45,63,6,13,2020-10-19 09:59:04.724
61,76,8,50,4,98,8,64,67,6,79,2,32,2020-10-19 09:59:04.763
66,2,77,4,55,91,53,71,6,85,4,57,2020-10-19 09:59:04.805
87,79,4,60,2,81,6,60,8,67,6,95,4,82,2,2020-10-19 09:59:04.844
80,2,79,2,44,4,73,8,46,4,48,8,93,87,8,2020-10-19 09:59:04.884
66,8,74,53,8,75,8,53,6,57,91,104,2,2020-10-19 09:59:04.924
69,2,82,8,72,8,75,4,44,47,71,4,97,6,2020-10-19 09:59:04.963
81,4,96,8,82,4,83,58,6,47,6,64,94,6,2020-10-19 09:59:05.001
56,93,2,85,75,4,43,50,4,48,8,70,4,2020-10-19 09:59:05.044
51,2,77,86,80,6,53,6,46,4,45,65,6,2020-10-19 09:59:05.083
52,2,70,2,78,6,56,6,43,47,8,42,4,60,2,2020-10-19 09:59:05.124
45,4,54,8,64,6,57,8,46,4,37,6,40,4,66,8,2020-10-19 09:59:05.167
50,4,43,4,45,6,35,2,31,4,31,4,32,6,52,6,2020-10-19 09:59:05.207
65,2,58,6,44,6,48,46,2,28,6,36,4,57,2,2020-10-19 09:59:05.248
81,6,74,8,57,62,55,6,34,6,50,2,65,8,2020-10-19 09:59:05.291
93,8,79,4,72,67,4,56,2,32,8,43,6,67,4,2020-10-19 09:59:05.330
90,2,85,4,69,2,49,6,56,2,41,4,59,8,54,8,2020-10-19 09:59:05.368
70,97,4,73,2,53,6,59,6,49,8,59,60,8,2020-10-19 09:59:05.407
61,2,101,2,80,4,37,8,53,2,47,52,2,58,2020-10-19 09:59:05.446
45,4,78,65,6,13,36,4,40,2,29,8,42,2,2020-10-19 09:59:05.484
22,62,45,7,6,35,6,27,8,25,6,26,6,2020-10-19 09:59:05.524
16,56,6,50,6,14,8,32,8,36,8,5,6,17,8,2020-10-19 09:59:05.562
11,6,60,64,6,33,8,47,6,25,4,2,3,8,2020-10-19 09:59:05.602
5,6,56,8,46,8,47,43,2,36,6,1,4,0,6,2020-10-19 09:59:05.644
24,6,55,8,40,2,49,47,4,48,2,1,5,2,2020-10-19 09:59:05.688
48,2,55,2,36,8,51,2,50,2,61,4,26,2,30,8,2020-10-19 09:59:05.729
57,6,69,8,29,4,43,8,42,2,61,48,4,42,4,2020-10-19 09:59:05.767
59,2,71,4,8,18,4,22,75,4,54,6,42,4,2020-10-19 09:59:05.807
59,4,62,4,5,2,17,78,78,42,6,2020-10-19 09:59:05.849
38,2,65,4,27,2,27,4,34,73,103,2,59,2020-10-19 09:59:05.887
13,74,2,51,36,6,54,2,60,98,4,36,8,2020-10-19 09:59:05.925
25,2,50,67,2,56,6,63,4,52,2,101,6,50,6,2020-10-19 09:59:05.963
48,2,34,4,88,81,8,62,2,62,6,120,2,74,6,2020-10-19 09:59:06.001
66,8,45,4,108,8,102,4,84,2,68,115,6,92,2,2020-10-19 09:59:06.041
67,6,46,6,99,8,83,2,84,2,71,8,98,6,73,8,2020-10-19 09:59:06.080
92,6,43,6,74,6,79,2,84,4,94,6,78,8,94,4,2020-10-19 09:59:06.118
73,6,65,2,60,60,87,6,90,4,72,8,78,2020-10-19 09:59:06.157
49,8,80,8,41,6,36,89,4,89,2,58,6,63,8,2020-10-19 09:59:06.196
53,84,2,46,4,29,6,90,80,2,55,8,59,2020-10-19 09:59:06.238
77,6,101,2,51,4,44,2,85,4,73,4,48,6,74,2,2020-10-19 09:59:06.277
56,2,106,54,8,39,2,63,6,51,6,65,6,74,2020-10-19 09:59:06.316
54,6,98,2,55,8,38,8,50,6,43,58,2,86,4,2020-10-19 09:59:06.355
70,2,73,4,58,8,39,48,19,2,51,8,98,8,2020-10-19 09:59:06.396
50,6,51,2,34,2,29,4,24,8,6,36,6,107,2,2020-10-19 09:59:06.433
27,29,2,14,8,11,8,4,2,3,36,89,2,2020-10-19 09:59:06.472
25,4,19,12,8,11,4,0,6,3,2,19,65,6,2020-10-19 09:59:06.513
24,4,4,2,11,6,22,0,6,6,8,10,48,2,2020-10-19 09:59:06.551
8,6,6,8,12,46,0,8,8,4,13,2,30,2,2020-10-19 09:59:06.595
7,4,6,4,13,4,51,4,0,8,9,14,4,10,8,2020-10-19 09:59:06.632
6,2,6,4,19,8,49,2,0,8,8,8,16,2,11,4,2020-10-19 09:59:06.671
6,8,6,23,56,6,1,4,8,2,15,4,11,6,2020-10-19 09:59:06.711
9,10,2,26,2,48,2,5,4,10,2,15,8,6,2020-10-19 09:59:06.752
7,6,7,6,21,22,8,6,2,9,8,9,8,4,6,2020-10-19 09:59:06.793
6,4,7,18,6,12,8,9,2,12,6,9,4,4,2020-10-19 09:59:06.833
7,8,6,2,13,2,12,6,10,16,11,2,4,6,2020-10-19 09:59:06.868
6,3,8,8,4,4,6,11,6,22,2,15,4,5,2,2020-10-19 09:59:06.909
3,2,4,10,2,6,8,2,20,2,15,6,4,8,2020-10-19 09:59:06.949
4,3,6,11,4,3,7,4,20,2,14,6,4,2020-10-19 09:59:06.985
5,3,6,13,4,4,8,7,2,18,4,12,4,5,2020-10-19 09:59:07.026
3,6,3,8,12,5,7,4,18,6,8,8,4,2020-10-19 09:59:07.064
4,6,3,8,13,4,3,6,6,2,14,4,8,4,8,2020-10-19 09:59:07.102
4,2,2,8,2,5,10,4,11,8,7,4,8,2020-10-19 09:59:07.141
4,2,2,4,14,4,5,6,11,17,8,7,4,3,2,2020-10-19 09:59:07.180
4,2,18,4,4,6,8,8,19,2,7,4,3,8,2020-10-19 09:59:07.218
5,2,2,8,20,4,4,8,18,7,4,2,2020-10-19 09:59:07.261
4,2,3,2,18,6,6,2,8,2,16,4,4,2,2,6,2020-10-19 09:59:07.297
4,2,3,6,22,6,4,4,4,6,16,8,4,8,3,2020-10-19 09:59:07.334
3,6,3,16,4,4,5,10,4,4,2,3,2,2020-10-19 09:59:07.373
3,3,10,4,4,4,4,6,8,6,5,2,3,8,2020-10-19 09:59:07.411
1,4,2,8,5,4,2,5,6,6,2,3,4,2020-10-19 09:59:07.449
1,4,1,2,8,8,3,2,3,4,8,5,6,3,4,2020-10-19 09:59:07.486
1,6,1,3,8,3,2,2,2,3,6,3,4,2,2,2020-10-19 09:59:07.525
1,6,1,2,1,8,4,2,3,6,3,6,3,8,1,8,2020-10-19 09:59:07.562
1,8,1,4,4,4,6,4,3,8,2,8,3,6,1,4,2020-10-19 09:59:07.601
1,8,1,6,4,8,15,6,5,2,3,4,4,2,8,2020-10-19 09:59:07.640
1,8,1,6,4,15,8,5,2,3,2,5,2,2,8,2020-10-19 09:59:07.682
1,6,1,4,3,4,26,4,5,2,8,5,2,20,2,2020-10-19 09:59:07.719
24,6,6,6,14,8,26,4,26,8,25,4,19,38,6,2020-10-19 09:59:07.759
49,6,31,8,35,41,6,51,2,46,6,43,4,61,2,2020-10-19 09:59:07.796
74,8,47,4,57,53,2,73,8,48,6,64,2,85,2020-10-19 09:59:07.837
79,8,51,64,6,61,4,97,6,56,4,67,6,96,4,2020-10-19 09:59:07.881
81,2,51,66,55,2,122,8,57,6,68,4,83,4,2020-10-19 09:59:07.919
59,2,45,6,56,4,54,4,106,34,2,54,2,66,4,2020-10-19 09:59:07.962
34,2,20,8,35,4,36,2,99,8,14,29,4,43,4,2020-10-19 09:59:08.001
9,2,5,4,13,4,17,81,4,12,6,6,6,18,2,2020-10-19 09:59:08.043
4,4,1,8,6,2,9,6,63,8,4,4,3,2,7,2,2020-10-19 09:59:08.083
3,2,6,2,6,38,8,3,6,2,2,3,4,2020-10-19 09:59:08.122
2,2,2,4,6,7,6,31,8,4,4,2,2,1,8,2020-10-19 09:59:08.163
2,2,3,6,8,13,2,3,2,2,4,1,8,2020-10-19 09:59:08.202
1,8,2,4,3,6,7,4,8,6,7,4,2,2020-10-19 09:59:08.249
1,4,2,2,3,4,6,8,2,2,8,4,6,2,2020-10-19 09:59:08.288
2,2,8,3,2,5,8,5,7,4,5,2,2,8,2020-10-19 09:59:08.328
2,2,4,6,4,4,8,4,8,7,5,6,2,8,2020-10-19 09:59:08.368
1,8,4,2,3,6,4,2,5,4,7,5,4,2,8,2020-10-19 09:59:08.407
2,3,6,2,8,2,8,6,2,3,8,4,6,3,2,2020-10-19 09:59:08.447
2,4,4,3,4,2,7,2,3,4,4,3,2,2020-10-19 09:59:08.484
2,3,6,3,4,5,2,5,6,5,4,8,2,2,2020-10-19 09:59:08.523
1,4,1,6,4,2,5,2,6,4,5,8,5,3,2020-10-19 09:59:08.564
2,1,8,4,8,7,2,5,8,7,4,6,2,2,8,2020-10-19 09:59:08.604
1,8,2,4,5,7,6,5,6,4,6,4,3,2020-10-19 09:59:08.646
1,2,2,6,5,2,6,4,2,6,5,8,2,8,2020-10-19 09:59:08.687
1,2,2,8,6,2,6,2,3,8,6,6,4,3,4,2020-10-19 09:59:08.727
1,8,3,2,4,4,5,4,2,8,6,8,6,8,2,8,2020-10-19 09:59:08.766
1,6,3,4,4,8,5,2,8,6,4,5,4,2,8,2020-10-19 09:59:08.804
1,6,2,8,5,8,6,8,3,8,6,6,5,6,2,4,2020-10-19 09:59:08.847
1,8,2,6,5,4,7,6,5,7,4,5,4,2,2020-10-19 09:59:08.889
2,2,3,2,3,9,4,8,6,4,4,1,4,2020-10-19 09:59:08.929
1,8,2,8,4,8,12,4,6,6,5,2,4,3,2,2020-10-19 09:59:08.968
2,2,2,3,4,12,8,4,4,4,4,2,3,6,2020-10-19 09:59:09.011
1,8,2,4,2,4,10,2,7,4,4,3,2,3,4,2020-10-19 09:59:09.052
2,2,4,6,11,6,6,8,6,2,4,8,4,2,2020-10-19 09:59:09.090
3,1,8,7,6,9,2,8,6,6,6,2,5,4,2020-10-19 09:59:09.131
2,8,1,8,6,8,5,8,7,6,6,5,4,2,2020-10-19 09:59:09.169
2,4,2,8,6,6,4,6,6,6,6,4,4,3,6,2020-10-19 09:59:09.210
2,4,1,8,11,2,5,6,6,8,6,2,4,4,3,4,2020-10-19 09:59:09.252
2,2,1,8,9,6,3,4,7,4,6,2,8,3,2020-10-19 09:59:09.289
0,8,0,6,8,8,3,8,8,4,4,6,1,8,1,4,2020-10-19 09:59:09.329
1,4,1,10,2,3,4,8,4,2,2,1,2,2020-10-19 09:59:09.370
1,2,0,6,8,6,4,6,8,5,4,3,2,2,2,2020-10-19 09:59:09.411
2,1,6,5,8,6,6,5,4,3,6,2,2,2020-10-19 09:59:09.450
2,1,8,8,4,6,6,6,2,4,6,3,4,2,4,2020-10-19 09:59:09.488
1,8,2,7,4,6,3,3,4,9,2,3,8,2020-10-19 09:59:09.529
2,4,2,6,7,2,7,2,4,6,12,6,5,2020-10-19 09:59:09.570
2,6,3,2,7,8,5,2,3,8,6,2,13,8,4,2020-10-19 09:59:09.612
1,8,3,10,5,2,3,6,8,4,16,6,8,2020-10-19 09:59:09.652
3,2,2,4,8,7,2,3,9,18,2,7,8,2020-10-19 09:59:09.691
3,6,2,8,7,2,8,3,2,11,12,7,4,2020-10-19 09:59:09.731
3,4,2,7,7,2,8,11,10,4,6,8,2020-10-19 09:59:09.770
3,6,1,8,7,8,7,8,4,9,4,8,6,10,2020-10-19 09:59:09.807
5,6,2,6,6,6,7,2,3,6,8,4,6,2,10,2020-10-19 09:59:09.848
5,2,2,4,6,4,6,3,2,7,8,4,8,8,2020-10-19 09:59:09.887
5,2,2,2,6,6,6,4,2,8,5,8,4,8,9,2,2020-10-19 09:59:09.928
5,4,2,6,5,6,8,1,6,3,4,2,8,8,4,2020-10-19 09:59:09.966
6,3,2,5,2,5,8,0,8,3,2,2,6,5,2,2020-10-19 09:59:10.003
4,2,8,5,4,5,2,1,8,3,2,3,2,2,4,2020-10-19 09:59:10.045
4,2,3,5,4,8,3,2,5,2,4,4,3,4,2020-10-19 09:59:10.085
4,2,3,4,4,2,4,6,3,4,7,8,3,6,2,8,2020-10-19 09:59:10.122
3,2,3,4,8,4,8,7,2,7,8,3,4,3,4,2020-10-19 09:59:10.162
3,2,4,3,4,4,4,9,4,7,6,3,6,3,6,2020-10-19 09:59:10.202
3,4,2,6,3,5,10,6,7,2,8,3,4,2020-10-19 09:59:10.240
3,3,8,3,5,2,12,8,9,3,2,4,2020-10-19 09:59:10.278
2,4,3,8,5,2,5,2,13,4,7,6,2,8,2,2020-10-19 09:59:10.318
2,8,3,6,5,5,8,10,4,8,2,2,6,1,2,2020-10-19 09:59:10.357
2,4,4,2,17,2,16,2,9,10,5,8,3,6,2020-10-19 09:59:10.399
3,4,8,22,4,33,10,2,10,11,10,6,2020-10-19 09:59:10.438
6,26,4,31,37,4,32,26,4,12,6,29,2,2020-10-19 09:59:10.478
18,8,37,2,47,4,57,56,6,34,2,37,8,41,8,2020-10-19 09:59:10.517
21,2,56,59,4,62,8,64,6,34,6,51,6,66,4,2020-10-19 09:59:10.556
22,73,2,70,6,55,2,72,43,2,73,6,89,4,2020-10-19 09:59:10.594
21,8,72,8,74,55,8,79,6,42,4,81,4,85,4,2020-10-19 09:59:10.635
17,8,50,4,66,4,50,6,55,22,8,79,4,69,2,2020-10-19 09:59:10.678
5,4,39,2,48,4,31,4,29,6,13,6,55,8,58,2020-10-19 09:59:10.716
2,6,21,2,36,24,4,21,4,12,4,42,4,33,8,2020-10-19 09:59:10.754
1,6,4,2,12,8,23,12,8,3,4,17,8,10,2,2020-10-19 09:59:10.795
1,4,3,4,3,4,4,8,3,4,4,2,5,7,4,2020-10-19 09:59:10.832
1,8,3,2,3,8,4,3,8,5,2,5,4,6,8,2020-10-19 09:59:10.872
2,3,3,2,10,4,4,2,5,4,3,6,5,4,2020-10-19 09:59:10.910
1,8,2,8,3,17,4,4,2,5,6,4,4,6,4,2020-10-19 09:59:10.950
2,4,2,3,8,16,6,4,4,4,8,5,6,2020-10-19 09:59:10.988
2,1,6,4,6,17,2,8,7,4,6,2,6,6,2020-10-19 09:59:11.028
1,8,1,6,3,4,13,2,1,8,6,4,4,8,4,6,2020-10-19 09:59:11.070
2,2,2,3,10,4,1,4,6,6,5,2,4,6,2020-10-19 09:59:11.109
2,6,2,6,3,2,2,8,0,8,7,4,3,2,2020-10-19 09:59:11.149
2,4,3,2,4,2,2,3,2,12,3,8,2,4,2020-10-19 09:59:11.191
2,6,3,3,4,1,6,3,4,8,8,3,4,1,6,2020-10-19 09:59:11.230
2,6,2,8,3,6,1,6,4,4,11,4,2,2020-10-19 09:59:11.269
2,4,2,6,3,6,1,6,6,14,5,6,2,8,2020-10-19 09:59:11.311
2,2,2,3,2,1,7,2,14,8,5,8,3,4,2020-10-19 09:59:11.351
1,4,1,4,3,2,1,6,4,8,9,8,5,4,2,6,2020-10-19 09:59:11.389
1,2,1,8,1,8,1,4,7,6,11,8,6,8,4,4,2020-10-19 09:59:11.429
1,4,3,2,2,4,0,6,7,11,2,7,4,2,2020-10-19 09:59:11.468
1,4,2,3,6,1,4,5,6,9,4,6,4,6,2020-10-19 09:59:11.509
1,2,5,5,2,2,6,5,8,11,2,6,6,4,2,2020-10-19 09:59:11.549
1,6,6,9,8,15,4,9,14,8,7,2,4,8,2020-10-19 09:59:11.588
1,4,5,8,16,4,41,9,18,4,8,3,2020-10-19 09:59:11.627
1,6,6,25,8,60,2,13,2,16,4,9,7,2,2020-10-19 09:59:11.669
3,4,5,4,47,2,69,14,8,14,8,8,6,9,2020-10-19 09:59:11.711
4,4,8,51,8,90,6,39,4,12,2,8,6,10,2,2020-10-19 09:59:11.756
4,3,8,47,8,79,4,55,8,10,4,8,4,11,2,2020-10-19 09:59:11.799
19,2,4,6,41,61,6,77,8,6,2,16,6,15,8,2020-10-19 09:59:11.840
19,8,3,31,4,51,8,75,6,8,2,11,4,11,6,2020-10-19 09:59:11.883
19,2,2,2,13,4,42,4,73,2,8,6,11,6,23,8,2020-10-19 09:59:11.929
18,4,1,4,8,6,30,6,48,6,7,6,11,4,22,6,2020-10-19 09:59:11.967
18,4,3,6,8,4,29,6,28,8,5,4,12,2,23,6,2020-10-19 09:59:12.009
3,4,3,2,8,6,22,8,4,8,6,4,2,19,4,2020-10-19 09:59:12.046
2,6,4,8,8,6,16,3,6,3,4,5,19,8,2020-10-19 09:59:12.085
1,6,12,6,3,8,16,6,5,3,6,4,8,4,4,2020-10-19 09:59:12.123
2,6,14,2,3,6,8,4,6,4,6,6,4,2020-10-19 09:59:12.164
2,6,12,5,2,15,7,6,4,2,6,2,3,2,2020-10-19 09:59:12.203
2,6,12,4,7,6,39,6,7,7,6,10,2,5,2020-10-19 09:59:12.241
2,8,11,4,7,58,6,9,2,12,4,5,2,2020-10-19 09:59:12.282
2,8,5,2,9,8,61,2,4,8,9,6,12,4,6,8,2020-10-19 09:59:12.323
2,2,6,6,9,4,75,8,7,6,12,8,12,9,4,2020-10-19 09:59:12.365
3,7,6,7,2,89,6,8,4,16,11,4,10,2020-10-19 09:59:12.404
22,2,18,4,29,6,72,18,8,30,8,32,6,30,8,2020-10-19 09:59:12.444
31,2,43,2,43,2,59,6,39,8,38,4,42,49,2,2020-10-19 09:59:12.482
52,4,46,8,44,2,58,8,61,2,39,44,4,58,2,2020-10-19 09:59:12.523
53,66,2,57,8,64,2,68,6,55,4,67,6,80,8,2020-10-19 09:59:12.563
60,6,89,70,6,54,8,68,6,59,8,92,103,4,2020-10-19 09:59:12.604
43,6,78,2,56,8,50,60,4,43,4,70,4,82,8,2020-10-19 09:59:12.643
34,6,54,43,8,43,2,40,8,36,6,62,66,2,2020-10-19 09:59:12.683
13,8,49,2,39,8,40,19,8,38,8,62,6,58,2,2020-10-19 09:59:12.721
12,6,27,6,27,2,17,8,9,8,20,8,37,6,33,6,2020-10-19 09:59:12.759
6,2,5,4,16,4,5,8,10,2,14,2,23,6,17,8,2020-10-19 09:59:12.799
4,6,4,4,7,4,26,4,10,4,11,2,26,8,21,6,2020-10-19 09:59:12.841
5,3,4,10,8,50,9,4,9,6,24,19,2020-10-19 09:59:12.884
9,6,3,6,12,6,70,2,9,2,9,6,22,4,17,8,2020-10-19 09:59:12.923
15,4,8,14,2,72,9,4,10,2,23,4,25,8,2020-10-19 09:59:12.967
18,6,3,8,14,8,94,6,6,9,2,12,2,25,4,2020-10-19 09:59:13.011
26,5,13,2,71,4,3,8,8,8,5,6,23,6,2020-10-19 09:59:13.050
27,6,5,4,11,8,46,2,3,4,9,6,4,6,25,2020-10-19 09:59:13.089
23,4,6,12,6,29,4,4,7,6,4,2,24,8,2020-10-19 09:59:13.130
17,8,5,2,9,4,27,6,4,6,6,8,4,6,23,2,2020-10-19 09:59:13.169
27,6,5,6,8,2,5,4,3,2,6,4,6,20,6,2020-10-19 09:59:13.209
25,8,19,6,9,2,10,4,5,4,7,14,2,18,2,2020-10-19 09:59:13.251
40,20,8,8,4,10,8,5,4,5,15,2,30,2,2020-10-19 09:59:13.291
43,4,24,2,6,6,8,6,4,2,4,14,2,32,6,2020-10-19 09:59:13.332
46,2,24,2,6,6,8,4,3,6,2,12,4,28,2020-10-19 09:59:13.370
31,2,23,2,5,8,2,3,6,2,10,8,22,2,2020-10-19 09:59:13.409
25,9,5,6,2,1,4,1,4,2,2,21,6,2020-10-19 09:59:13.450
8,8,7,8,5,1,8,1,2,1,4,1,2,8,2,2020-10-19 09:59:13.490
4,6,5,2,5,1,6,1,0,6,1,4,4,4,2020-10-19 09:59:13.529
2,8,3,5,8,2,1,0,8,1,4,2,2020-10-19 09:59:13.571
2,8,3,6,2,4,6,3,1,8,2,8,3,2,2020-10-19 09:59:13.611
3,2,4,3,6,5,2,3,2,2,8,2,6,2020-10-19 09:59:13.654
2,8,1,8,2,4,6,3,2,10,4,2,4,2020-10-19 09:59:13.693
2,8,1,6,2,6,6,4,8,14,6,3,8,3,2020-10-19 09:59:13.736
2,2,1,8,2,2,6,8,4,6,17,8,6,2,3,8,2020-10-19 09:59:13.775
2,2,6,2,2,4,6,5,6,20,4,5,4,3,2020-10-19 09:59:13.818
1,8,2,4,2,8,4,9,21,8,5,8,3,2,2020-10-19 09:59:13.860
2,2,6,2,8,3,9,8,15,2,4,8,3,8,2020-10-19 09:59:13.900
2,4,2,4,2,8,10,8,4,11,8,6,3,6,2020-10-19 09:59:13.942
2,4,2,1,6,17,6,8,6,12,6,10,6,4,8,2020-10-19 09:59:13.982
1,8,1,4,1,19,7,6,12,2,13,8,4,2,2020-10-19 09:59:14.022
2,1,4,1,19,8,6,8,11,2,18,2,3,4,2020-10-19 09:59:14.061
3,1,6,3,21,8,7,2,11,8,22,8,6,8,2020-10-19 09:59:14.102
3,1,8,3,14,6,8,13,6,21,6,7,2,2020-10-19 09:59:14.141
3,2,3,5,4,7,7,6,10,15,4,5,6,2020-10-19 09:59:14.179
3,2,3,4,5,4,5,2,5,4,6,6,12,6,6,2020-10-19 09:59:14.219
3,3,4,6,6,5,3,7,8,7,8,6,8,2020-10-19 09:59:14.260
1,8,3,5,3,1,8,11,4,2,3,2020-10-19 09:59:14.306
1,4,2,6,4,6,2,4,1,6,10,8,3,8,2,6,2020-10-19 09:59:14.345
1,2,2,8,2,2,3,10,8,3,2,2,8,2020-10-19 09:59:14.388
2,4,2,4,6,5,3,11,6,3,8,2,4,2020-10-19 09:59:14.425
2,4,2,8,10,6,20,8,5,4,12,8,4,8,2,2,2020-10-19 09:59:14.468
5,4,2,12,2,24,2,6,2,8,8,4,2,8,8,2020-10-19 09:59:14.509
7,2,7,4,14,4,27,5,6,7,4,13,2,2020-10-19 09:59:14.551
10,4,7,15,6,29,6,6,6,6,7,6,35,2020-10-19 09:59:14.589
9,2,6,6,14,4,26,2,7,6,7,2,7,2,50,8,2020-10-19 09:59:14.633
10,6,2,10,4,10,6,4,5,2,5,8,52,2020-10-19 09:59:14.671
7,5,8,6,8,6,4,2,5,46,6,2020-10-19 09:59:14.712
4,8,2,2,6,8,5,4,6,4,6,8,42,2,2020-10-19 09:59:14.753
1,2,2,2,5,6,3,4,3,8,4,3,2,20,6,2020-10-19 09:59:14.794
1,4,2,8,5,3,4,2,8,2,8,2,8,4,2020-10-19 09:59:14.835
0,8,2,6,1,2,3,4,1,8,2,2,8,2,8,2020-10-19 09:59:14.876
1,2,2,1,2,2,4,3,4,4,3,6,2,2,2020-10-19 09:59:14.916
1,8,1,8,1,4,1,8,3,4,4,6,2,8,2,2020-10-19 09:59:14.958
1,8,1,4,0,8,1,4,3,8,5,8,3,1,4,2020-10-19 09:59:14.995
1,4,0,8,2,2,1,4,4,4,6,2,8,1,6,2020-10-19 09:59:15.036
1,0,8,2,6,1,6,5,4,6,4,2,6,1,4,2020-10-19 09:59:15.074
1,2,0,8,2,6,1,4,3,6,6,1,8,0,8,2020-10-19 09:59:15.112
1,1,4,2,4,1,8,3,2,5,1,8,1,2020-10-19 09:59:15.152
1,2,1,6,2,6,1,8,3,6,7,2,3,1,4,2020-10-19 09:59:15.193
1,8,1,6,1,4,2,4,4,8,6,3,4,1,4,2020-10-19 09:59:15.232
2,1,2,1,2,2,4,2,6,8,2,3,6,1,6,2020-10-19 09:59:15.271
1,8,1,2,1,4,2,2,2,8,6,4,4,1,6,2020-10-19 09:59:15.311
1,2,1,5,2,2,8,7,3,4,1,4,2020-10-19 09:59:15.349
1,6,0,8,6,2,2,2,8,5,3,1,6,2020-10-19 09:59:15.389
1,0,6,6,2,1,6,2,3,4,2,8,1,8,2020-10-19 09:59:15.434
1,0,6,6,2,1,4,2,8,4,3,1,8,2020-10-19 09:59:15.471
1,4,1,4,6,4,1,4,2,6,4,4,2,6,1,8,2020-10-19 09:59:15.509
1,6,0,8,2,6,1,4,3,4,8,2,6,2,2020-10-19 09:59:15.550
1,2,0,8,3,1,4,3,2,5,2,1,6,2020-10-19 09:59:15.587
1,6,1,3,4,1,4,3,4,6,2,8,1,4,2020-10-19 09:59:15.630
1,4,1,2,4,2,1,6,4,4,7,6,3,2,1,4,2020-10-19 09:59:15.675
0,8,0,6,4,1,6,5,4,7,4,3,6,1,6,2020-10-19 09:59:15.712
1,2,1,4,6,1,6,5,2,8,8,3,6,1,4,2020-10-19 09:59:15.752
1,2,1,6,3,2,1,4,4,10,4,6,1,8,2020-10-19 09:59:15.792
1,1,4,2,8,1,4,4,11,8,3,8,2,2,2020-10-19 09:59:15.834
1,2,1,4,1,8,1,2,2,6,11,6,3,2,2,6,2020-10-19 09:59:15.873
1,4,1,6,2,8,1,1,8,11,6,3,2,6,2020-10-19 09:59:15.912
1,1,4,2,8,1,2,10,6,3,2,3,2020-10-19 09:59:15.952
1,1,2,3,1,4,2,9,2,2,3,2020-10-19 09:59:15.990
1,1,6,3,1,4,2,6,8,2,2,3,2020-10-19 09:59:16.030
1,1,8,3,4,1,2,8,5,4,2,2,6,2020-10-19 09:59:16.071
0,8,1,6,2,1,2,2,4,5,2,2,2,6,2020-10-19 09:59:16.109
1,1,6,1,4,1,2,2,3,8,2,2,2,2020-10-19 09:59:16.150
1,2,1,2,1,4,0,8,2,6,2,6,2,6,1,6,2020-10-19 09:59:16.188
1,1,1,1,2,4,2,2,2,6,1,2,2020-10-19 09:59:16.226
1,2,1,1,1,1,8,1,4,2,6,1,6,2020-10-19 09:59:16.266
1,4,1,1,4,1,2,4,3,6,3,2,1,4,2020-10-19 09:59:16.314
1,2,1,2,1,6,3,6,4,2,8,1,4,2020-10-19 09:59:16.352
1,1,2,2,1,8,4,6,6,8,2,6,1,4,2020-10-19 09:59:16.390
1,4,1,8,2,2,1,4,4,6,8,2,4,2,2,2020-10-19 09:59:16.433
1,4,3,4,1,8,2,2,11,11,4,4,4,3,6,2020-10-19 09:59:16.471
1,2,4,2,4,2,13,2,9,4,4,4,4,2,2020-10-19 09:59:16.510
2,2,5,2,4,6,17,6,10,5,4,5,2020-10-19 09:59:16.553
2,7,1,8,7,19,8,4,6,5,4,2020-10-19 09:59:16.589
2,9,3,4,9,4,23,7,8,5,2,5,4,2020-10-19 09:59:16.628
2,8,10,6,2,18,6,30,4,6,6,4,2,3,8,2020-10-19 09:59:16.670
3,8,10,2,6,8,18,8,28,8,2,6,5,8,2020-10-19 09:59:16.711
3,2,10,2,8,2,25,6,30,6,9,6,5,8,5,2020-10-19 09:59:16.752
3,4,8,8,8,2,27,33,8,10,6,6,4,6,2020-10-19 09:59:16.789
4,7,2,8,29,8,34,6,14,4,8,5,6,2020-10-19 09:59:16.828
3,6,4,8,6,21,25,12,8,8,5,4,2020-10-19 09:59:16.869
2,8,4,4,5,2,20,8,32,2,11,8,5,8,2,8,2020-10-19 09:59:16.908
2,4,4,5,6,23,4,29,4,9,8,5,6,3,4,2020-10-19 09:59:16.949
2,8,3,2,5,6,21,2,25,4,8,6,6,2,3,8,2020-10-19 09:59:16.986
2,2,8,5,6,18,4,29,2,4,4,5,2,5,6,2020-10-19 09:59:17.026
1,4,4,6,6,20,2,30,4,6,5,6,8,6,2020-10-19 09:59:17.068
1,6,4,6,6,2,21,6,24,6,3,2,5,6,9,4,2020-10-19 09:59:17.108
1,4,4,4,5,10,24,2,3,2,8,8,10,2,2020-10-19 09:59:17.147
1,6,5,4,5,4,8,6,23,6,2,4,8,11,2020-10-19 09:59:17.189
2,5,4,6,4,15,2,2,4,8,6,9,4,2020-10-19 09:59:17.227
3,4,3,4,3,6,3,8,10,6,1,8,8,6,7,2,2020-10-19 09:59:17.265
3,4,3,8,4,2,3,2,7,4,2,8,8,7,2020-10-19 09:59:17.309
3,8,3,4,3,2,2,8,3,6,1,8,5,4,5,6,2020-10-19 09:59:17.347
3,8,2,4,4,6,4,8,2,2,3,6,4,5,2020-10-19 09:59:17.386
3,4,2,6,5,6,4,8,1,8,2,4,4,3,8,2020-10-19 09:59:17.429
3,2,1,8,7,8,6,2,1,8,2,8,3,8,3,2020-10-19 09:59:17.466
4,2,2,11,8,7,8,1,8,2,8,6,8,4,4,2020-10-19 09:59:17.506
5,2,4,33,8,8,8,3,2,6,9,2,6,4,2020-10-19 09:59:17.546
5,4,5,4,40,7,3,2,4,8,8,4,7,8,2020-10-19 09:59:17.584
6,2,9,43,8,4,2,5,6,9,2,8,2020-10-19 09:59:17.625
14,4,28,40,2,9,3,8,5,8,10,9,2,2020-10-19 09:59:17.665
17,2,26,8,34,6,8,6,3,8,6,8,7,8,7,8,2020-10-19 09:59:17.703
16,8,29,4,13,10,4,4,4,4,4,4,8,5,8,2020-10-19 09:59:17.740
17,8,33,4,6,4,16,4,4,15,4,29,8,6,8,2020-10-19 09:59:17.780
20,4,29,8,2,4,18,2,6,2,19,8,39,6,6,2020-10-19 09:59:17.820
12,6,10,8,4,6,16,4,7,2,25,2,38,6,5,8,2020-10-19 09:59:17.859
10,2,12,8,7,17,4,6,8,26,6,39,8,7,8,2020-10-19 09:59:17.899
9,6,10,4,10,8,16,5,31,2,41,8,2020-10-19 09:59:17.938
8,3,8,9,2,10,4,13,6,27,17,8,6,2020-10-19 09:59:17.977
4,8,3,4,9,4,12,8,11,4,27,2,17,2,6,2020-10-19 09:59:18.017
3,2,4,7,8,12,4,12,6,22,17,2,6,2,2020-10-19 09:59:18.057
1,8,2,5,6,15,14,2,22,8,17,3,6,2020-10-19 09:59:18.098
1,4,1,4,2,2,14,6,15,6,22,8,20,6,4,8,2020-10-19 09:59:18.140
1,2,1,4,3,8,14,4,7,6,16,20,2,4,8,2020-10-19 09:59:18.178
1,6,1,4,4,4,9,2,7,8,13,13,8,6,2,2020-10-19 09:59:18.220
1,6,1,4,4,8,8,5,4,13,6,13,2,5,2020-10-19 09:59:18.259
3,4,1,4,6,7,4,5,2,11,4,12,6,4,2020-10-19 09:59:18.296
4,3,9,8,4,5,6,9,8,8,4,5,2,2020-10-19 09:59:18.337
6,2,8,8,2,10,6,5,4,9,8,7,2,4,4,2020-10-19 09:59:18.375
15,8,12,2,19,4,33,8,5,4,8,2,5,2,3,6,2020-10-19 09:59:18.416
31,6,13,4,22,4,34,6,8,4,7,2,6,2,4,4,2020-10-19 09:59:18.454
38,6,20,2,35,55,8,8,4,7,4,30,4,17,2020-10-19 09:59:18.491
42,4,20,8,33,6,77,6,8,4,6,38,4,22,4,2020-10-19 09:59:18.528
41,2,20,8,39,2,79,8,6,4,5,40,2,25,6,2020-10-19 09:59:18.566
31,6,11,6,28,2,58,7,6,5,6,43,8,29,2,2020-10-19 09:59:18.607
15,8,11,25,8,60,8,5,8,6,8,47,4,33,2020-10-19 09:59:18.648
9,2,15,8,16,2,36,8,5,6,4,23,4,20,2020-10-19 09:59:18.689
7,4,20,2,13,13,6,5,4,7,2,16,2,15,2,2020-10-19 09:59:18.727
8,4,20,7,8,18,7,7,15,4,14,2020-10-19 09:59:18.769
7,6,19,8,7,18,6,9,8,2,12,8,10,6,2020-10-19 09:59:18.808
8,6,20,2,8,8,18,8,6,6,9,2,6,2,2020-10-19 09:59:18.849
9,4,15,8,7,4,18,8,8,4,8,2,9,8,5,6,2020-10-19 09:59:18.889
8,6,11,2,11,6,20,8,9,4,9,4,10,2,5,2,2020-10-19 09:59:18.929
7,2,11,6,11,8,17,12,13,2,16,2,8,2020-10-19 09:59:18.968
7,2,12,4,19,2,23,4,9,4,13,2,14,2,2,8,2020-10-19 09:59:19.008
6,2,11,8,17,2,22,9,2,14,2,15,6,2,6,2020-10-19 09:59:19.049
3,6,5,15,4,38,6,9,6,13,14,2,2,2020-10-19 09:59:19.090
2,3,11,2,57,4,10,4,12,4,14,6,3,6,2020-10-19 09:59:19.127
1,6,3,11,2,57,4,7,2,9,2,7,6,3,8,2020-10-19 09:59:19.171
2,2,2,6,3,6,49,4,5,8,8,8,8,2,3,4,2020-10-19 09:59:19.210
2,2,4,2,4,48,4,7,8,6,5,4,4,6,2020-10-19 09:59:19.248
1,8,2,6,2,6,30,8,5,4,8,4,6,4,5,2,2020-10-19 09:59:19.288
2,8,2,2,2,4,10,4,2,8,6,2,3,8,3,6,2020-10-19 09:59:19.325
3,2,1,6,5,4,2,4,5,2,4,3,6,2020-10-19 09:59:19.364
2,4,1,6,2,4,4,4,3,3,3,2,2,8,2020-10-19 09:59:19.404
4,8,3,6,12,2,4,6,2,8,4,3,8,2,4,2020-10-19 09:59:19.441
13,6,5,4,20,4,4,2,3,6,7,5,4,3,2020-10-19 09:59:19.479
27,19,22,6,11,6,6,8,8,5,4,2020-10-19 09:59:19.519
38,4,31,25,4,16,7,6,8,8,9,2,9,2,2020-10-19 09:59:19.556
39,2,31,4,25,6,17,8,10,6,12,6,9,4,10,8,2020-10-19 09:59:19.598
36,8,29,6,16,2,19,6,12,4,12,11,4,12,6,2020-10-19 09:59:19.637
28,27,8,8,21,8,11,8,15,6,15,15,8,2020-10-19 09:59:19.674
14,4,15,6,4,14,2,9,4,16,6,15,2,15,4,2020-10-19 09:59:19.711
2,8,3,6,3,11,8,7,15,15,6,11,8,2020-10-19 09:59:19.750
3,6,3,4,2,2,10,8,4,8,12,16,11,2020-10-19 09:59:19.790
11,2,4,2,2,2,10,2,2,11,4,13,8,8,6,2020-10-19 09:59:19.829
10,8,6,8,4,2,7,8,3,2,6,2,9,4,2,2020-10-19 09:59:19.867
26,8,10,2,7,8,4,6,8,7,6,13,2,5,8,2020-10-19 09:59:19.907
34,2,11,12,2,7,8,12,4,21,17,4,7,6,2020-10-19 09:59:19.945
33,8,14,19,8,28,2,12,8,24,16,4,9,2020-10-19 09:59:19.982
26,6,13,4,24,8,30,8,15,2,23,8,16,6,9,2,2020-10-19 09:59:20.029
1,8,5,4,7,8,2,6,4,3,6,2,1,6,2020-10-19 09:58:22.227
1,6,6,6,7,6,2,4,2,3,6,2,1,2020-10-19 09:58:22.277
1,4,6,10,8,2,4,4,2,4,2,4,1,4,2020-10-19 09:58:22.293
1,8,7,8,5,8,3,8,4,8,4,6,2,2,1,8,2020-10-19 09:58:22.310
1,4,6,6,7,4,3,6,4,4,6,1,8,1,6,2020-10-19 09:58:22.326
1,2,7,4,7,8,4,2,6,6,4,4,2,4,1,2,2020-10-19 09:58:22.343
1,6,5,8,14,6,5,2,9,4,5,4,3,4,1,4,2020-10-19 09:58:22.368
2,8,7,6,12,2,6,12,4,5,6,5,4,2,2,2020-10-19 09:58:22.377
2,8,6,6,14,2,4,2,11,8,5,8,6,1,8,2020-10-19 09:58:22.393
2,4,7,2,13,2,4,9,8,4,8,6,8,1,8,2020-10-19 09:58:22.410
2,8,6,2,12,2,3,10,4,6,6,6,8,2,2020-10-19 09:58:22.427
2,8,9,8,2,8,8,4,6,4,6,1,8,2020-10-19 09:58:22.444
1,8,6,8,6,4,2,6,7,6,5,8,3,8,0,6,2020-10-19 09:58:22.461
1,6,6,5,8,2,6,8,2,6,4,4,2,1,2,2020-10-19 09:58:22.477
1,6,5,6,6,2,6,8,7,2,4,2,1,6,2020-10-19 09:58:22.493
1,6,5,2,7,2,8,7,6,6,6,3,8,1,6,2020-10-19 09:58:22.511
2,2,3,8,7,2,2,4,7,4,6,6,3,6,2,2020-10-19 09:58:22.527
2,4,3,6,10,1,4,5,2,6,3,4,1,8,2020-10-19 09:58:22.544
2,8,4,6,10,6,2,4,7,6,6,3,4,1,6,2020-10-19 09:58:22.561
3,2,5,6,9,2,2,4,6,8,6,4,3,4,1,2,2020-10-19 09:58:22.577
2,8,5,8,9,2,2,8,6,6,6,2,3,4,1,2,2020-10-19 09:58:22.593
2,4,4,2,7,2,2,8,6,5,2,3,8,1,2020-10-19 09:58:22.610
2,6,8,6,6,6,2,6,6,8,5,3,4,1,4,2020-10-19 09:58:22.626
3,8,6,2,2,6,5,2,4,2,6,1,2,2020-10-19 09:58:22.644
3,2,8,8,4,2,4,5,8,3,2,4,1,8,2020-10-19 09:58:22.660
3,2,9,4,9,4,1,8,4,8,3,2,2,2,2020-10-19 09:58:22.677
2,6,8,8,9,6,1,8,4,8,3,6,2,2,1,8,2020-10-19 09:58:22.694
2,4,6,2,11,2,1,8,4,2,3,6,2,8,1,8,2020-10-19 09:58:22.711
1,4,6,2,10,2,6,6,6,6,2,3,6,2,4,2020-10-19 09:58:22.727
2,8,7,2,11,4,4,2,6,6,3,4,2,6,2020-10-19 09:58:22.744
3,6,5,6,10,2,5,10,4,6,4,6,2,6,2020-10-19 09:58:22.761
5,6,6,8,10,6,5,2,11,6,5,6,3,8,4,4,2020-10-19 09:58:22.778
5,6,4,8,8,6,6,12,6,3,2,4,2,2020-10-19 09:58:22.794
7,6,7,8,5,2,9,4,3,4,2,6,3,8,2020-10-19 09:58:22.811
5,8,5,2,5,8,4,4,10,2,2,8,2,6,3,2,2020-10-19 09:58:22.828
6,5,6,7,2,4,6,1,6,1,4,4,2,2020-10-19 09:58:22.844
4,4,5,2,8,7,6,11,2,2,1,4,2,4,2020-10-19 09:58:22.861
7,2,5,4,8,4,6,2,10,2,2,4,1,8,4,2,2020-10-19 09:58:22.878
7,2,3,6,8,8,6,8,9,2,4,1,2,5,2020-10-19 09:58:22.894
6,4,3,7,8,7,8,12,4,2,2,0,8,5,2,2020-10-19 09:58:22.911
6,4,2,6,6,4,7,8,15,6,2,2,0,8,4,8,2020-10-19 09:58:22.928
6,2,2,2,4,4,5,12,1,6,1,2,5,2,2020-10-19 09:58:22.944
3,4,2,4,3,6,5,6,12,4,1,1,4,3,8,2020-10-19 09:58:22.960
2,8,4,4,4,6,4,6,13,6,1,6,2,2,3,4,2020-10-19 09:58:22.977
3,8,5,4,4,8,2,8,12,3,2,3,2,2020-10-19 09:58:22.993
2,8,5,6,4,6,3,2,10,6,3,2,2,2,2,2020-10-19 09:58:23.011
2,4,5,6,5,2,3,8,9,6,4,2,1,8,2,2020-10-19 09:58:23.028
3,4,6,6,6,2,3,6,11,4,4,8,1,6,2,2020-10-19 09:58:23.044
4,2,9,12,8,4,12,2,4,4,1,2,1,8,2020-10-19 09:58:23.061
3,2,7,4,13,6,4,8,10,8,3,2,1,2,1,4,2020-10-19 09:58:23.078
4,7,8,13,6,4,8,10,2,4,4,2,2,2020-10-19 09:58:23.094
4,8,9,8,12,8,4,9,6,3,8,2,4,2,2,2020-10-19 09:58:23.112
3,4,9,6,12,4,6,7,8,3,6,2,1,8,2020-10-19 09:58:23.129
2,8,6,4,7,4,6,6,3,4,2,2,1,8,2020-10-19 09:58:23.144
3,2,9,2,10,5,2,8,2,3,8,2,4,2,2,2020-10-19 09:58:23.162
2,6,8,6,10,6,4,6,8,4,3,1,8,2,2020-10-19 09:58:23.178
2,2,6,6,12,3,6,8,8,3,2,1,8,2,2020-10-19 09:58:23.206
2,2,7,13,2,8,8,6,3,6,2,6,1,8,2020-10-19 09:58:23.264
1,2,5,8,11,4,4,12,3,4,2,2,1,4,2020-10-19 09:58:23.308
1,3,7,8,3,2,9,8,3,2,1,4,2020-10-19 09:58:23.352
0,8,2,6,7,3,8,8,2,6,2,4,1,4,2020-10-19 09:58:23.392
0,4,3,7,3,8,11,4,3,4,2,4,1,2020-10-19 09:58:23.432
0,6,2,2,4,8,4,2,10,4,3,6,1,8,1,4,2020-10-19 09:58:23.472
1,2,2,2,3,4,3,7,4,3,4,2,2,2020-10-19 09:58:23.511
1,2,4,3,2,3,4,6,6,4,2,3,2,2,4,2020-10-19 09:58:23.555
1,6,2,8,3,4,3,6,7,4,3,8,3,2020-10-19 09:58:23.594
2,2,3,2,4,3,6,5,4,4,4,5,8,3,8,2020-10-19 09:58:23.631
2,6,2,4,2,6,4,2,6,2,5,8,6,2,4,2,2020-10-19 09:58:23.668
2,2,2,4,2,2,4,4,6,11,6,9,8,4,2020-10-19 09:58:23.709
2,6,2,4,2,8,4,6,9,11,6,9,8,4,2,2020-10-19 09:58:23.746
2,8,2,2,6,4,2,10,8,16,4,10,4,4,2020-10-19 09:58:23.783
2,4,1,2,2,8,4,9,6,18,10,3,6,2020-10-19 09:58:23.823
2,1,4,4,6,4,2,9,17,2,10,4,2,8,2020-10-19 09:58:23.861
2,2,6,10,2,7,9,6,11,6,7,2,3,2,2020-10-19 09:58:23.899
2,3,8,13,9,8,8,6,13,9,2,3,2020-10-19 09:58:23.935
1,8,5,4,13,2,14,2,6,4,10,8,8,6,2,8,2020-10-19 09:58:23.974
1,8,9,8,32,8,15,4,4,6,11,8,8,2,3,6,2020-10-19 09:58:24.015
6,2,18,6,55,6,20,6,6,2,29,2,13,6,6,8,2020-10-19 09:58:24.052
11,23,60,2,24,4,8,2,30,6,20,8,6,6,2020-10-19 09:58:24.091
16,2,29,59,8,32,2,8,6,36,2,18,4,12,2,2020-10-19 09:58:24.130
18,6,30,4,67,29,8,8,49,19,4,17,6,2020-10-19 09:58:24.170
25,6,28,2,53,4,31,14,6,53,25,2,25,4,2020-10-19 09:58:24.214
40,4,25,8,34,32,14,40,4,22,30,2,2020-10-19 09:58:24.254
39,8,20,6,38,4,28,11,8,61,17,32,2020-10-19 09:58:24.294
46,2,15,6,37,8,21,6,14,4,78,6,21,2,28,4,2020-10-19 09:58:24.335
48,4,18,4,31,6,28,6,15,2,76,6,24,8,33,8,2020-10-19 09:58:24.374
41,6,27,6,33,6,27,4,23,80,8,24,8,26,4,2020-10-19 09:58:24.411
30,2,31,2,48,24,35,6,83,2,36,26,2,2020-10-19 09:58:24.448
28,2,40,8,45,2,28,40,2,65,41,4,29,2020-10-19 09:58:24.489
29,4,53,42,4,26,2,45,42,59,27,6,2020-10-19 09:58:24.529
33,57,2,58,26,2,50,6,38,2,57,21,2,2020-10-19 09:58:24.567
46,6,53,2,56,2,25,4,40,2,29,2,51,8,28,6,2020-10-19 09:58:24.610
45,2,49,2,38,4,24,8,32,22,2,40,22,2,2020-10-19 09:58:24.648
49,2,43,8,36,6,32,2,37,2,23,41,8,22,8,2020-10-19 09:58:24.688
37,2,33,4,49,4,35,8,34,4,32,2,33,2,26,2020-10-19 09:58:24.735
39,2,32,8,35,4,43,37,4,42,34,8,21,8,2020-10-19 09:58:24.777
26,8,27,6,36,4,64,8,36,6,53,6,34,6,19,8,2020-10-19 09:58:24.814
21,6,33,48,73,4,36,4,63,4,57,6,27,2,2020-10-19 09:58:24.851
25,8,32,8,43,6,64,27,68,2,65,28,2020-10-19 09:58:24.887
26,32,8,32,2,66,6,23,4,60,8,56,24,6,2020-10-19 09:58:24.926
27,2,35,6,33,72,18,2,46,6,74,4,24,2,2020-10-19 09:58:24.965
26,4,35,4,26,6,55,6,22,2,33,4,75,19,2,2020-10-19 09:58:25.006
28,2,24,2,28,4,46,2,20,38,69,6,14,2,2020-10-19 09:58:25.043
23,6,28,2,30,4,43,6,23,2,44,2,68,6,8,2020-10-19 09:58:25.083
24,6,32,6,33,4,40,6,21,8,52,2,64,2,9,8,2020-10-19 09:58:25.123
13,2,21,2,31,21,18,8,55,46,8,11,8,2020-10-19 09:58:25.160
12,6,21,34,14,8,13,8,58,48,6,12,6,2020-10-19 09:58:25.195
9,6,27,8,23,12,8,19,6,46,36,6,12,4,2020-10-19 09:58:25.234
3,6,22,6,20,8,15,8,19,8,31,2,20,6,13,2,2020-10-19 09:58:25.273
2,2,14,4,21,4,10,8,24,6,24,6,21,13,4,2020-10-19 09:58:25.310
2,14,8,21,6,17,6,45,4,20,4,16,4,11,6,2020-10-19 09:58:25.349
2,13,8,19,8,35,2,48,6,17,13,9,2020-10-19 09:58:25.387
2,7,4,15,6,34,8,39,8,13,6,7,4,6,4,2020-10-19 09:58:25.427
2,6,4,6,11,2,31,6,35,6,13,8,8,5,8,2020-10-19 09:58:25.466
2,2,7,8,7,30,6,42,2,13,2,8,2,3,2020-10-19 09:58:25.502
2,2,7,2,6,22,2,22,6,10,8,2,3,2,2020-10-19 09:58:25.540
3,6,4,3,6,7,25,10,6,7,4,3,4,2020-10-19 09:58:25.581
3,8,12,8,4,6,7,2,28,10,5,8,4,4,2020-10-19 09:58:25.621
3,4,13,7,8,7,6,30,2,8,8,6,5,2,2020-10-19 09:58:25.661
4,13,6,6,6,9,6,20,4,4,8,5,8,2020-10-19 09:58:25.700
4,6,15,6,7,8,14,8,20,4,3,8,3,6,6,2020-10-19 09:58:25.744
4,8,15,8,8,12,8,12,8,2,4,2,6,8,2020-10-19 09:58:25.781
5,9,4,9,4,13,4,11,2,6,5,6,6,2020-10-19 09:58:25.819
6,8,6,5,6,10,6,9,4,7,6,8,6,2020-10-19 09:58:25.858
5,2,4,8,7,2,15,6,6,6,7,2,7,8,5,6,2020-10-19 09:58:25.896
4,8,3,4,7,12,6,4,4,6,8,7,4,4,6,2020-10-19 09:58:25.935
5,7,7,2,14,8,6,2,7,6,8,4,2020-10-19 09:58:25.975
4,6,6,4,8,14,5,4,4,4,8,3,2020-10-19 09:58:26.016
3,6,6,8,4,6,17,7,4,3,3,1,6,2020-10-19 09:58:26.056
3,2,6,2,8,11,2,8,2,3,2,2,1,2020-10-19 09:58:26.096
2,8,5,4,2,2,11,4,9,2,3,2,2,1,2020-10-19 09:58:26.134
1,4,1,6,1,6,8,6,7,8,2,8,2,0,6,2020-10-19 09:58:26.170
1,4,1,4,2,12,10,6,2,1,6,0,8,2020-10-19 09:58:26.211
1,1,4,2,2,9,4,7,8,3,6,2,1,6,2020-10-19 09:58:26.251
1,1,6,2,6,10,2,8,5,2,2,2,1,6,2020-10-19 09:58:26.290
0,8,1,4,1,8,8,2,6,4,5,6,2,4,1,8,2020-10-19 09:58:26.327
2,2,2,6,2,8,4,7,7,6,3,2,2,2020-10-19 09:58:26.368
2,6,2,6,1,8,5,4,4,6,8,4,3,8,2,2020-10-19 09:58:26.406
2,4,2,6,2,4,8,2,6,7,2,3,1,6,2020-10-19 09:58:26.442
2,6,2,4,2,7,4,6,5,2,8,1,8,2020-10-19 09:58:26.480
2,8,2,4,2,2,7,8,5,4,4,2,6,2,2020-10-19 09:58:26.517
2,2,1,4,2,6,9,6,5,4,2,1,4,2,2020-10-19 09:58:26.558
1,6,1,2,2,2,9,8,4,4,1,1,1,6,2020-10-19 09:58:26.597
3,2,1,8,1,4,6,6,3,4,1,2,1,2,1,6,2020-10-19 09:58:26.635
2,8,2,1,4,5,2,3,4,1,4,1,1,6,2020-10-19 09:58:26.673
3,1,6,1,2,4,4,3,2,1,2,1,2,1,4,2020-10-19 09:58:26.712
3,4,1,8,0,8,3,2,4,2,2,1,8,2020-10-19 09:58:26.752
6,2,2,4,1,4,3,4,2,2,2,2,2,2,2020-10-19 09:58:26.792
5,2,1,2,3,4,2,1,4,1,6,2,2020-10-19 09:58:26.831
5,2,2,1,4,3,2,2,4,1,2,1,6,2,2020-10-19 09:58:26.869
5,2,4,1,6,2,4,2,4,1,2,1,4,2,2020-10-19 09:58:26.907
4,2,2,4,1,4,3,4,2,6,0,8,1,2,1,6,2020-10-19 09:58:26.944
1,8,1,6,1,2,4,3,1,1,2,1,4,2020-10-19 09:58:26.983
2,4,1,6,1,4,2,6,3,0,8,1,2,1,4,2020-10-19 09:58:27.026
4,2,2,1,4,2,6,2,4,1,1,6,1,8,2020-10-19 09:58:27.063
4,2,6,1,2,3,2,2,1,6,2,2,2,2020-10-19 09:58:27.099
4,2,6,1,4,2,2,4,2,2,2,2020-10-19 09:58:27.139
4,2,8,1,4,1,8,2,6,1,8,2,1,8,2020-10-19 09:58:27.178
4,4,3,4,2,4,2,8,2,8,2,2,2,4,2020-10-19 09:58:27.221
3,2,3,2,6,3,4,2,8,2,1,6,1,8,2020-10-19 09:58:27.259
2,8,4,4,4,4,4,6,3,2,1,8,1,4,1,4,2020-10-19 09:58:27.295
2,6,6,2,4,8,4,2,2,2,1,1,1,4,2020-10-19 09:58:27.334
2,8,12,2,7,6,5,6,3,1,4,1,4,1,4,2020-10-19 09:58:27.372
1,8,12,6,4,4,4,2,4,1,4,1,2,0,6,2020-10-19 09:58:27.411
2,13,4,6,6,4,2,4,1,2,1,0,8,2020-10-19 09:58:27.450
2,2,12,4,5,2,2,6,2,0,8,1,4,0,8,2020-10-19 09:58:27.488
2,11,4,6,2,8,1,8,0,8,1,2,0,8,2020-10-19 09:58:27.525
2,8,8,6,2,2,6,1,0,8,1,2,1,2,2020-10-19 09:58:27.567
2,4,9,2,2,4,3,1,2,0,8,1,4,1,4,2020-10-19 09:58:27.606
3,8,6,3,2,5,2,6,1,2,1,8,1,6,2020-10-19 09:58:27.645
3,7,8,4,5,2,2,8,1,4,1,4,1,6,2020-10-19 09:58:27.687
3,2,7,4,4,4,6,4,6,1,8,1,4,1,6,2020-10-19 09:58:27.725
2,6,8,4,2,4,4,5,2,1,4,1,1,6,2020-10-19 09:58:27.773
3,7,4,3,8,6,2,6,1,6,1,4,1,8,2020-10-19 09:58:27.816
1,8,8,3,4,4,8,4,6,1,4,1,4,1,8,2020-10-19 09:58:27.855
2,8,8,2,8,4,8,4,8,1,4,1,8,1,8,2020-10-19 09:58:27.892
1,8,8,8,2,4,5,3,8,1,2,2,1,8,2020-10-19 09:58:27.931
1,4,4,2,6,7,3,6,1,2,1,8,1,4,2020-10-19 09:58:27.973
1,3,8,2,8,5,4,4,2,1,2,1,4,1,2020-10-19 09:58:28.011
1,4,2,4,2,5,6,4,8,1,6,1,6,1,2020-10-19 09:58:28.049
1,2,1,6,2,6,6,1,6,1,2,1,4,2020-10-19 09:58:28.089
1,6,1,8,2,2,12,8,6,2,1,2,1,4,2020-10-19 09:58:28.128
1,4,1,8,2,10,2,8,6,2,1,4,1,6,2020-10-19 09:58:28.166
1,2,1,6,1,8,10,8,8,6,2,4,1,4,1,6,2020-10-19 09:58:28.205
0,8,1,8,2,2,13,8,8,2,0,8,1,4,2020-10-19 09:58:28.243
0,6,2,4,1,6,13,2,8,8,2,0,8,1,2020-10-19 09:58:28.281
0,2,2,4,1,6,9,7,4,1,8,0,8,1,2020-10-19 09:58:28.317
0,4,2,8,1,6,8,6,4,2,1,1,2,2020-10-19 09:58:28.354
0,6,2,8,1,8,8,4,5,1,4,0,8,1,2020-10-19 09:58:28.392
0,8,2,1,4,5,2,4,4,1,6,0,8,1,2020-10-19 09:58:28.433
0,8,1,4,1,4,5,4,2,8,1,8,0,8,1,2020-10-19 09:58:28.470
0,8,1,2,1,2,3,6,1,2,1,8,0,6,1,2020-10-19 09:58:28.509
0,6,1,2,1,2,4,4,1,2,1,6,0,2,1,2020-10-19 09:58:28.548
0,4,0,8,1,3,4,1,1,6,0,4,1,2,2020-10-19 09:58:28.591
0,8,1,6,1,4,2,1,1,2,0,6,1,2020-10-19 09:58:28.632
1,2,1,6,1,2,3,6,1,4,1,4,0,6,0,8,2020-10-19 09:58:28.669
1,6,1,6,1,3,8,2,1,2,0,6,0,6,2020-10-19 09:58:28.712
1,6,1,6,1,2,3,6,2,1,2,0,8,0,6,2020-10-19 09:58:28.757
2,4,1,8,1,4,3,2,2,2,1,4,0,8,0,8,2020-10-19 09:58:28.799
2,4,1,4,1,2,3,2,2,1,4,0,6,1,2,2020-10-19 09:58:28.840
2,4,1,4,1,3,8,2,4,1,0,4,1,4,2020-10-19 09:58:28.880
3,1,6,1,2,4,2,1,6,0,8,0,6,1,6,2020-10-19 09:58:28.920
3,6,1,6,1,4,8,1,8,0,8,0,6,1,6,2020-10-19 09:58:28.960
4,2,2,4,1,2,5,4,2,0,6,0,6,1,8,2020-10-19 09:58:28.999
3,8,2,4,1,4,5,8,2,4,2,1,2,1,8,2020-10-19 09:58:29.037
3,6,2,2,3,4,5,2,12,4,4,6,2,1,8,2020-10-19 09:58:29.076
2,6,2,3,4,4,6,14,6,4,8,2,1,8,2020-10-19 09:58:29.115
1,8,2,4,2,3,14,8,5,4,2,4,1,6,2020-10-19 09:58:29.155
0,8,1,2,3,6,2,4,16,8,7,2,8,1,2,2020-10-19 09:58:29.196
3,1,6,4,2,2,17,8,9,2,7,2,3,8,2020-10-19 09:58:29.234
4,4,2,2,2,2,7,6,11,6,10,8,5,2020-10-19 09:58:29.274
5,8,2,2,2,2,4,5,4,11,6,16,5,8,2020-10-19 09:58:29.313
6,2,1,8,1,8,2,8,5,2,11,8,15,4,6,4,2020-10-19 09:58:29.354
7,6,1,8,2,4,3,6,3,6,10,8,16,7,2020-10-19 09:58:29.399
5,6,1,2,2,7,2,7,2,11,2,4,6,2020-10-19 09:58:29.438
6,2,2,5,16,2,7,4,3,4,7,6,4,4,2020-10-19 09:58:29.482
5,6,4,2,9,2,19,2,10,5,2,3,2,4,8,2020-10-19 09:58:29.525
8,4,6,10,8,26,4,27,6,23,6,13,6,9,2020-10-19 09:58:29.563
9,8,13,2,32,44,6,41,6,24,2,12,4,2020-10-19 09:58:29.601
10,8,9,6,15,8,35,56,4,47,4,30,14,4,2020-10-19 09:58:29.640
9,8,8,4,14,25,6,59,47,2,30,6,14,2,2020-10-19 09:58:29.678
10,10,6,11,26,2,78,8,55,35,4,16,2,2020-10-19 09:58:29.717
7,2,9,4,9,2,18,8,68,4,39,26,8,12,6,2020-10-19 09:58:29.755
4,8,7,6,6,4,14,6,54,6,20,8,15,4,8,4,2020-10-19 09:58:29.795
3,4,8,4,3,8,9,6,47,4,16,4,10,2,5,8,2020-10-19 09:58:29.833
2,8,9,6,3,8,9,2,41,8,16,8,9,4,8,2020-10-19 09:58:29.874
3,6,2,3,8,8,36,8,14,4,2,2,2,2020-10-19 09:58:29.912
2,8,6,6,6,6,12,4,39,4,11,2,3,2,1,2020-10-19 09:58:29.951
4,7,8,8,2,16,4,35,8,12,4,5,2,2,8,2020-10-19 09:58:29.994
12,2,8,8,11,8,19,4,34,8,18,2,13,4,9,8,2020-10-19 09:58:30.034
15,4,9,11,8,20,8,36,8,32,8,35,21,2,2020-10-19 09:58:30.073
17,8,10,13,8,21,2,25,6,48,4,53,8,27,2020-10-19 09:58:30.112
19,4,9,6,11,2,19,23,6,48,4,58,2,30,4,2020-10-19 09:58:30.151
21,2,8,8,10,2,12,6,27,50,58,4,32,6,2020-10-19 09:58:30.193
13,4,7,8,9,4,8,8,26,2,44,50,8,25,6,2020-10-19 09:58:30.233
11,7,6,8,4,8,2,24,6,31,2,36,2,17,6,2020-10-19 09:58:30.273
8,8,6,6,4,6,2,21,2,14,4,20,2,14,6,2020-10-19 09:58:30.312
8,4,5,8,6,4,5,17,16,4,15,8,14,2,2020-10-19 09:58:30.352
12,2,8,6,8,4,7,8,15,2,22,8,14,2,17,4,2020-10-19 09:58:30.391
11,8,6,4,5,8,9,23,8,28,2,14,2,19,8,2020-10-19 09:58:30.431
12,6,6,4,5,8,9,4,24,2,28,4,9,4,20,8,2020-10-19 09:58:30.471
11,8,17,2,10,8,10,25,6,31,8,6,2,17,6,2020-10-19 09:58:30.511
10,8,21,8,15,6,25,4,32,2,32,8,6,14,8,2020-10-19 09:58:30.551
6,4,25,16,4,23,2,32,4,27,6,9,4,8,4,2020-10-19 09:58:30.592
8,2,27,2,21,8,20,8,21,4,21,6,12,8,9,2,2020-10-19 09:58:30.630
8,4,27,8,22,6,30,6,21,2,23,2,14,8,8,8,2020-10-19 09:58:30.672
9,17,4,18,4,30,2,17,4,17,8,18,2,9,4,2020-10-19 09:58:30.709
15,4,13,6,14,2,14,6,7,16,4,16,4,13,6,2020-10-19 09:58:30.747
15,7,2,11,4,14,2,6,8,11,6,15,14,2020-10-19 09:58:30.788
14,4,5,6,2,15,9,6,12,4,11,11,4,2020-10-19 09:58:30.830
13,6,3,4,5,5,13,2,10,8,8,8,6,2020-10-19 09:58:30.864
18,6,3,4,7,5,8,17,6,8,6,4,4,9,8,2020-10-19 09:58:30.900
12,4,2,6,11,20,21,9,2,4,6,5,2,2020-10-19 09:58:30.938
15,8,6,2,10,2,20,8,20,4,9,8,5,4,5,8,2020-10-19 09:58:30.974
14,4,7,6,9,8,23,2,18,2,9,8,5,8,5,2,2020-10-19 09:58:31.011
13,7,8,12,24,6,11,2,6,4,4,6,4,4,2020-10-19 09:58:31.048
16,8,11,2,10,8,23,2,7,2,6,4,5,8,5,2,2020-10-19 09:58:31.083
17,10,8,5,2,9,2,3,8,4,6,4,6,5,4,2020-10-19 09:58:31.123
15,2,10,9,4,8,3,4,4,2,4,4,6,2020-10-19 09:58:31.161
14,8,10,10,5,2,2,3,4,3,4,6,2020-10-19 09:58:31.196
15,4,12,6,9,4,3,2,3,8,3,4,4,2020-10-19 09:58:31.235
8,2,10,2,7,4,1,4,1,6,3,8,2,4,2,6,2020-10-19 09:58:31.274
8,8,11,2,9,8,1,1,8,3,6,2,8,2,4,2020-10-19 09:58:31.310
7,2,8,8,7,2,1,2,1,2,4,4,2,8,1,6,2020-10-19 09:58:31.349
7,6,8,7,1,4,1,2,4,6,3,1,8,2020-10-19 09:58:31.388
7,6,6,6,8,1,2,1,4,4,6,3,2,2020-10-19 09:58:31.427
4,2,5,8,7,6,2,2,3,8,2,6,1,4,2020-10-19 09:58:31.464
3,5,2,5,4,6,7,8,11,6,5,2,6,2020-10-19 09:58:31.502
3,6,6,5,7,4,9,2,20,6,9,3,4,2020-10-19 09:58:31.540
3,2,6,4,4,8,9,8,9,4,28,6,9,6,4,6,2020-10-19 09:58:31.579
3,8,5,3,4,12,4,11,28,4,11,4,6,2020-10-19 09:58:31.618
4,4,4,2,3,13,4,10,4,31,6,12,4,4,8,2020-10-19 09:58:31.661
4,4,9,7,4,14,2,10,6,26,4,9,6,3,6,2020-10-19 09:58:31.707
5,6,17,10,8,17,10,18,8,7,6,4,6,2020-10-19 09:58:31.750
5,8,22,6,12,2,17,11,6,10,4,7,8,4,4,2020-10-19 09:58:31.787
6,24,6,13,4,18,23,8,12,2,6,8,4,6,2020-10-19 09:58:31.830
5,6,26,6,14,6,19,8,29,4,11,6,6,2,4,4,2020-10-19 09:58:31.870
6,21,4,10,2,15,24,2,9,8,6,4,8,2020-10-19 09:58:31.915
3,11,6,5,8,13,30,8,8,4,4,3,2020-10-19 09:58:31.951
2,2,6,6,4,4,11,6,36,2,9,8,4,2,2,2,2020-10-19 09:58:31.991
1,4,5,3,6,9,2,23,8,4,5,2,2,4,2020-10-19 09:58:32.025
1,6,2,8,2,8,15,4,17,5,2,3,8,2,2020-10-19 09:58:32.063
1,4,2,4,23,18,4,10,8,4,3,2020-10-19 09:58:32.101
1,6,6,4,2,8,22,6,16,6,11,4,3,6,3,2020-10-19 09:58:32.141
1,6,6,2,3,6,21,6,10,2,11,4,3,2,8,2020-10-19 09:58:32.181
2,6,7,4,4,6,20,8,10,10,8,1,8,2,2020-10-19 09:58:32.218
2,2,8,4,8,14,12,2,11,2,1,8,2,2,2020-10-19 09:58:32.255
2,6,6,6,5,4,9,2,14,2,5,2,1,6,1,2,2020-10-19 09:58:32.295
2,6,5,5,8,9,4,19,4,1,2,1,2020-10-19 09:58:32.330
2,6,3,8,5,9,6,19,2,3,6,1,1,2020-10-19 09:58:32.367
1,6,1,8,3,8,10,2,21,3,8,1,1,4,2020-10-19 09:58:32.403
2,1,4,2,6,7,6,19,6,3,8,1,4,1,2,2020-10-19 09:58:32.444
1,6,1,6,2,8,6,17,6,3,8,1,4,1,2020-10-19 09:58:32.480
1,4,2,4,6,5,8,2,3,2,1,4,1,2,2020-10-19 09:58:32.517
1,4,2,2,4,6,4,6,9,8,2,2,1,2,1,4,2020-10-19 09:58:32.557
1,6,2,4,5,4,7,4,9,3,2,1,8,1,8,2020-10-19 09:58:32.597
1,4,2,2,6,8,2,14,3,8,1,8,2,4,2020-10-19 09:58:32.636
1,4,2,5,8,7,4,22,5,4,3,4,3,2,2020-10-19 09:58:32.675
12,8,14,6,8,4,7,4,31,6,8,2,7,2,7,4,2020-10-19 09:58:32.710
38,39,8,18,2,10,8,28,8,10,8,8,4,14,8,2020-10-19 09:58:32.749
45,2,47,4,20,8,9,6,29,6,10,2,9,8,16,8,2020-10-19 09:58:32.786
53,6,65,2,29,6,14,27,2,9,4,13,4,31,6,2020-10-19 09:58:32.825
57,8,67,8,37,25,6,29,8,9,6,12,6,31,4,2020-10-19 09:58:32.861
56,4,59,4,34,4,25,4,24,4,8,6,11,2,31,4,2020-10-19 09:58:32.898
36,4,47,6,27,2,24,8,25,2,9,8,13,24,2,2020-10-19 09:58:32.934
46,8,57,4,23,8,23,4,24,4,10,11,24,2,2020-10-19 09:58:32.974
38,2,41,4,15,4,18,23,6,10,7,2,8,6,2020-10-19 09:58:33.010
37,4,40,2,8,2,6,8,11,8,8,7,8,2,2020-10-19 09:58:33.050
28,8,36,6,5,8,8,2,7,4,6,6,4,6,4,2020-10-19 09:58:33.085
27,2,23,2,3,6,5,6,7,6,3,4,1,8,3,8,2020-10-19 09:58:33.124
12,2,7,2,3,8,5,4,6,4,2,6,1,8,1,6,2020-10-19 09:58:33.160
12,4,7,8,3,9,6,6,8,2,8,2,6,2,4,2020-10-19 09:58:33.200
11,2,11,4,2,4,11,7,2,2,3,3,8,2020-10-19 09:58:33.237
12,2,14,6,3,4,10,8,6,6,6,2,7,4,4,8,2020-10-19 09:58:33.278
14,4,18,4,5,2,14,2,13,8,31,28,6,19,6,2020-10-19 09:58:33.314
26,2,24,9,2,18,8,21,4,42,4,36,8,35,2020-10-19 09:58:33.352
28,4,24,2,10,2,14,4,18,2,45,41,8,34,6,2020-10-19 09:58:33.387
30,6,20,4,10,16,18,6,50,4,45,2,33,2,2020-10-19 09:58:33.428
40,17,2,11,2,17,8,17,8,46,4,42,4,36,4,2020-10-19 09:58:33.463
34,2,24,4,9,6,14,6,10,4,21,8,21,2,23,8,2020-10-19 09:58:33.503
19,8,23,2,5,2,8,8,4,4,12,13,2,7,8,2020-10-19 09:58:33.542
17,4,22,6,7,6,13,5,6,9,7,4,7,6,2020-10-19 09:58:33.582
13,4,23,4,10,2,9,6,6,6,3,6,3,7,8,2020-10-19 09:58:33.618
1,4,23,2,8,4,17,2,9,3,4,1,6,3,8,2020-10-19 09:58:33.658
1,8,13,2,8,2,19,9,8,3,8,2,1,2,2020-10-19 09:58:33.695
10,2,17,4,8,6,21,18,2,3,2,1,6,3,2020-10-19 09:58:33.731
21,6,24,2,7,4,18,8,24,2,10,4,2,8,6,8,2020-10-19 09:58:33.769
25,2,23,8,7,2,20,8,28,4,13,2,4,8,6,4,2020-10-19 09:58:33.809
28,25,6,9,10,27,13,6,4,6,8,2020-10-19 09:58:33.846
43,4,44,9,4,11,2,25,4,12,8,4,6,9,4,2020-10-19 09:58:33.883
35,6,34,8,12,2,14,17,8,14,4,6,7,8,2020-10-19 09:58:33.920
27,2,28,8,10,2,23,6,12,11,2,6,2,5,4,2020-10-19 09:58:33.959
24,8,31,2,10,2,29,6,5,8,16,4,5,8,5,4,2020-10-19 09:58:34.000
26,2,29,6,7,6,30,4,8,2,19,4,6,8,3,4,2020-10-19 09:58:34.036
12,10,8,6,6,30,4,10,2,19,6,7,4,3,2020-10-19 09:58:34.073
13,10,3,6,28,2,8,20,4,10,4,4,4,2020-10-19 09:58:34.111
10,4,7,2,4,22,4,18,8,19,8,7,8,3,2020-10-19 09:58:34.147
9,4,2,3,4,18,4,26,4,13,7,4,3,4,2020-10-19 09:58:34.184
4,4,2,4,4,2,22,8,24,4,11,8,9,5,2020-10-19 09:58:34.221
5,4,6,4,7,2,35,24,6,14,10,2,4,8,2020-10-19 09:58:34.260
4,2,7,4,9,8,34,4,25,13,8,4,3,8,2020-10-19 09:58:34.298
8,8,12,2,12,2,29,4,18,12,6,10,6,2,2020-10-19 09:58:34.334
11,2,13,11,4,28,6,11,2,11,8,9,6,5,8,2020-10-19 09:58:34.374
12,8,14,12,6,32,2,10,4,12,2,8,6,4,6,2020-10-19 09:58:34.413
11,4,10,9,8,19,4,9,11,2,7,6,4,8,2020-10-19 09:58:34.447
11,11,6,6,8,17,6,8,6,9,4,6,4,4,4,2020-10-19 09:58:34.485
5,8,7,4,3,8,19,8,3,6,7,5,2,2,4,2020-10-19 09:58:34.522
4,5,8,6,8,18,4,3,2,6,6,4,6,3,2020-10-19 09:58:34.563
3,2,5,6,6,8,9,2,3,2,4,4,3,4,3,6,2020-10-19 09:58:34.599
2,2,5,6,8,6,6,3,2,2,8,2,4,2,8,2020-10-19 09:58:34.639
2,4,3,4,7,2,9,4,4,8,2,6,2,6,2,8,2020-10-19 09:58:34.677
2,4,3,2,7,6,6,6,5,4,2,2,2,6,2020-10-19 09:58:34.715
1,8,3,6,4,5,2,7,1,8,2,2,1,8,2020-10-19 09:58:34.753
1,4,2,4,2,2,6,7,6,1,8,2,1,2020-10-19 09:58:34.794
1,2,2,1,8,6,6,6,6,1,8,2,6,1,2,2020-10-19 09:58:34.833
1,2,1,6,1,6,4,6,4,8,1,8,3,2,2020-10-19 09:58:34.878
1,2,1,2,1,4,6,4,4,1,4,3,6,1,8,2020-10-19 09:58:34.918
1,0,8,1,2,4,4,2,4,1,2,4,2,6,2020-10-19 09:58:34.957
1,2,1,2,2,3,6,1,4,1,6,4,2,6,2020-10-19 09:58:34.998
1,8,1,8,15,2,5,1,2,1,6,4,2,3,8,2020-10-19 09:58:35.039
1,4,10,28,4,20,2,1,8,4,4,4,4,6,2020-10-19 09:58:35.081
18,2,14,8,42,27,8,14,6,4,8,5,2,5,8,2020-10-19 09:58:35.123
29,6,29,6,51,2,36,20,2,13,6,10,4,6,2020-10-19 09:58:35.165
29,8,29,6,72,8,39,4,22,2,14,2,11,2,7,2020-10-19 09:58:35.206
49,2,48,8,73,2,49,2,22,8,17,6,13,2,9,6,2020-10-19 09:58:35.249
51,4,42,79,2,41,8,22,6,14,8,14,2,9,6,2020-10-19 09:58:35.290
35,6,43,67,6,38,2,9,8,17,12,4,8,6,2020-10-19 09:58:35.329
25,2,29,6,74,2,40,2,11,8,8,6,4,8,8,2020-10-19 09:58:35.369
32,6,39,8,74,6,49,10,6,8,6,6,8,4,2020-10-19 09:58:35.408
19,6,24,4,75,45,4,13,8,3,8,5,4,2020-10-19 09:58:35.448
18,28,56,4,44,8,17,8,15,2,2,4,4,2,2020-10-19 09:58:35.484
22,4,23,6,71,8,43,8,18,8,19,4,2,4,4,2020-10-19 09:58:35.521
27,2,26,6,60,2,34,12,6,19,4,4,6,4,4,2020-10-19 09:58:35.558
34,8,23,39,6,21,6,11,2,18,2,6,2,4,4,2020-10-19 09:58:35.598
29,2,22,30,2,13,4,8,4,15,4,5,4,3,8,2020-10-19 09:58:35.634
29,8,18,31,4,7,3,8,8,4,5,8,3,4,2020-10-19 09:58:35.671
31,4,29,6,37,2,8,4,4,8,5,8,3,8,2020-10-19 09:58:35.710
31,4,28,8,37,6,11,4,4,9,2,5,8,4,2020-10-19 09:58:35.749
24,23,2,38,2,11,6,5,10,4,8,3,4,2020-10-19 09:58:35.784
26,8,22,8,44,4,12,6,5,6,10,4,8,3,2020-10-19 09:58:35.822
28,6,22,2,46,4,12,6,4,6,13,4,5,6,3,2020-10-19 09:58:35.858
27,6,14,24,2,10,4,5,4,11,8,5,3,2020-10-19 09:58:35.896
24,4,14,26,6,10,4,6,8,10,2,4,8,2,6,2020-10-19 09:58:35.931
21,6,18,2,23,8,10,6,7,8,9,2,4,8,3,2,2020-10-19 09:58:35.967
19,8,19,6,22,8,17,6,7,2,10,2,6,4,3,6,2020-10-19 09:58:36.004
18,4,18,8,24,8,19,8,4,8,5,4,3,6,2020-10-19 09:58:36.043
13,14,2,31,6,18,6,6,6,7,8,4,8,3,2,2020-10-19 09:58:36.079
14,10,4,41,8,16,2,6,4,9,6,2,3,8,2020-10-19 09:58:36.116
10,4,10,6,46,8,15,4,4,8,11,4,5,6,4,2020-10-19 09:58:36.153
12,2,8,2,44,2,7,8,5,14,4,4,5,2020-10-19 09:58:36.193
12,14,4,52,2,9,6,14,8,4,5,2020-10-19 09:58:36.232
15,8,21,4,52,8,7,8,4,13,6,3,6,6,2,2020-10-19 09:58:36.273
17,28,48,6,6,8,11,8,4,5,4,2020-10-19 09:58:36.312
16,8,26,2,48,2,11,4,8,9,4,4,6,4,4,2020-10-19 09:58:36.351
15,2,24,6,66,6,11,4,8,6,9,2,6,4,3,4,2020-10-19 09:58:36.387
17,6,21,4,52,8,19,2,7,7,8,7,2,5,2020-10-19 09:58:36.426
16,8,15,8,55,25,6,6,10,8,7,6,4,2,2020-10-19 09:58:36.463
15,6,14,47,4,25,4,6,11,6,5,6,4,2020-10-19 09:58:36.501
14,8,11,45,4,26,2,6,12,4,6,4,2020-10-19 09:58:36.537
17,8,12,2,21,6,28,6,6,13,2,5,2,5,2020-10-19 09:58:36.575
17,4,12,33,2,18,4,6,6,16,4,4,3,8,2020-10-19 09:58:36.614
20,2,14,2,35,2,17,8,5,6,10,4,4,2,2020-10-19 09:58:36.652
19,2,9,6,32,4,21,6,5,12,2,5,2,4,6,2020-10-19 09:58:36.687
25,2,10,29,18,8,5,4,12,8,5,2,5,2020-10-19 09:58:36.727
28,4,15,4,41,2,18,2,5,2,8,8,5,3,8,2020-10-19 09:58:36.763
25,12,8,35,6,18,5,8,9,6,7,6,4,4,2020-10-19 09:58:36.802
21,8,9,8,28,6,20,6,8,4,19,6,8,8,3,6,2020-10-19 09:58:36.840
19,6,12,6,49,4,28,12,2,17,8,8,4,3,8,2020-10-19 09:58:36.879
13,8,12,8,60,25,6,13,4,19,6,6,8,3,6,2020-10-19 09:58:36.915
7,8,8,6,53,4,26,8,13,2,20,2,6,2,4,4,2020-10-19 09:58:36.953
8,8,8,2,48,25,8,12,4,17,2,4,2,4,2,2020-10-19 09:58:36.989
8,11,44,8,19,6,11,2,8,6,3,8,4,6,2020-10-19 09:58:37.029
13,6,11,6,22,2,19,6,11,2,9,4,5,4,6,2020-10-19 09:58:37.066
16,4,10,8,25,4,20,8,6,8,7,2,8,2,2020-10-19 09:58:37.103
21,2,10,4,24,2,22,2,11,12,8,7,8,2020-10-19 09:58:37.138
20,4,15,4,27,4,25,12,6,12,4,8,7,8,2020-10-19 09:58:37.179
24,2,21,2,48,8,26,2,10,4,15,2,7,7,4,2020-10-19 09:58:37.220
18,8,17,6,51,2,16,8,7,17,2,7,4,5,6,2020-10-19 09:58:37.259
25,4,26,6,49,8,15,6,7,8,17,4,6,8,5,8,2020-10-19 09:58:37.298
23,6,33,2,55,16,8,5,8,14,6,8,2,6,6,2020-10-19 09:58:37.340
25,33,6,54,13,6,7,18,8,9,6,10,2020-10-19 09:58:37.380
19,36,8,34,4,14,6,10,2,16,2,11,6,13,2020-10-19 09:58:37.418
19,6,46,2,56,4,16,10,6,23,13,4,15,8,2020-10-19 09:58:37.455
14,4,41,8,64,8,22,8,9,8,21,2,13,4,14,2020-10-19 09:58:37.498
11,8,37,59,4,18,8,15,4,23,4,13,8,12,6,2020-10-19 09:58:37.536
12,36,61,4,18,4,14,8,21,11,2,8,6,2020-10-19 09:58:37.576
14,2,26,6,67,2,32,8,14,8,28,6,13,6,6,2,2020-10-19 09:58:37.617
14,21,4,44,6,30,8,24,6,22,9,6,2,8,2020-10-19 09:58:37.655
9,16,2,25,25,6,27,4,25,4,8,4,3,2,2020-10-19 09:58:37.690
7,4,15,2,22,4,28,8,30,2,29,6,9,4,3,6,2020-10-19 09:58:37.731
7,12,2,18,6,40,32,4,29,8,10,4,4,2020-10-19 09:58:37.767
6,6,19,2,10,6,28,38,24,6,6,2,8,2020-10-19 09:58:37.805
7,2,19,4,9,4,35,6,40,4,21,8,7,2,4,2,2020-10-19 09:58:37.841
7,8,20,8,8,37,4,42,8,18,4,8,4,2,2020-10-19 09:58:37.880
6,6,17,6,9,2,47,40,6,11,2,6,3,8,2020-10-19 09:58:37.917
6,17,8,12,6,46,49,6,10,8,5,6,3,8,2020-10-19 09:58:37.953
4,8,11,2,42,2,45,8,8,4,4,8,4,4,2020-10-19 09:58:37.990
2,6,3,6,10,4,34,35,2,7,4,3,8,3,2020-10-19 09:58:38.031
2,8,4,12,4,34,30,8,10,4,4,4,3,2,2020-10-19 09:58:38.066
3,6,4,4,11,2,23,8,29,6,11,5,6,4,6,2020-10-19 09:58:38.105
2,8,3,2,11,19,4,15,8,9,2,4,2,4,2,2020-10-19 09:58:38.143
3,3,4,11,4,16,4,12,8,4,7,6,4,4,2020-10-19 09:58:38.182
3,8,6,2,16,4,17,8,12,8,8,4,8,6,4,2,2020-10-19 09:58:38.219
22,4,22,2,36,2,21,23,2,17,9,9,2,2020-10-19 09:58:38.255
27,8,33,8,40,4,21,6,21,24,12,8,8,2020-10-19 09:58:38.292
38,37,8,36,2,17,2,24,8,27,15,4,12,8,2020-10-19 09:58:38.331
44,4,40,6,41,4,20,38,4,27,8,12,4,14,4,2020-10-19 09:58:38.365
49,8,40,8,37,6,18,2,40,35,6,16,17,2020-10-19 09:58:38.402
34,8,23,6,30,6,12,2,29,6,30,4,16,11,6,2020-10-19 09:58:38.438
32,14,6,37,8,10,6,27,8,23,6,11,8,13,4,2020-10-19 09:58:38.475
30,6,23,52,4,13,32,6,40,6,12,9,4,2020-10-19 09:58:38.514
24,6,21,4,61,2,11,4,20,8,47,6,15,4,7,6,2020-10-19 09:58:38.553
29,8,22,8,60,8,14,6,20,2,60,4,17,8,4,2020-10-19 09:58:38.589
27,2,30,6,47,19,4,26,8,56,6,15,2,7,6,2020-10-19 09:58:38.628
23,4,29,6,38,14,8,26,2,53,8,14,8,5,8,2020-10-19 09:58:38.665
14,6,20,38,8,11,8,24,6,45,17,6,2020-10-19 09:58:38.703
14,2,18,6,29,2,15,4,31,8,43,4,18,8,12,2,2020-10-19 09:58:38.739
11,8,25,6,36,4,16,6,33,4,23,4,12,6,9,8,2020-10-19 09:58:38.779
11,18,8,40,4,16,8,29,2,21,2,15,2,16,6,2020-10-19 09:58:38.818
11,2,16,2,38,8,16,6,32,8,21,8,16,8,18,4,2020-10-19 09:58:38.854
11,2,15,24,17,4,27,13,6,13,20,2020-10-19 09:58:38.892
11,4,15,2,19,4,13,8,18,9,2,8,6,13,6,2020-10-19 09:58:38.931
2,6,4,6,11,9,4,14,9,4,8,8,13,2020-10-19 09:58:38.968
2,4,6,2,4,11,10,7,4,6,8,2020-10-19 09:58:39.011
2,4,3,2,6,7,6,9,5,4,3,8,2020-10-19 09:58:39.051
2,8,2,4,2,8,5,4,6,2,6,6,4,6,4,2020-10-19 09:58:39.087
2,6,3,4,5,6,4,2,5,2,4,4,3,6,3,8,2020-10-19 09:58:39.124
2,6,3,4,5,8,6,3,4,3,4,3,4,3,8,2020-10-19 09:58:39.164
3,3,8,5,2,5,6,3,4,2,4,2,4,4,8,2020-10-19 09:58:39.199
4,4,2,4,8,4,2,2,2,4,2,4,5,2020-10-19 09:58:39.237
3,4,4,4,6,3,6,1,6,2,6,1,8,3,2,2020-10-19 09:58:39.272
3,6,2,8,1,2,3,8,3,2,3,2,1,8,3,2020-10-19 09:58:39.312
3,4,2,0,8,2,4,2,3,4,2,2,8,2020-10-19 09:58:39.351
2,2,1,6,1,4,2,4,3,8,4,2,1,2,2020-10-19 09:58:39.388
1,2,2,2,4,3,6,6,8,5,4,2,4,0,8,2020-10-19 09:58:39.424
2,5,8,11,8,8,6,10,2,4,2,0,4,2020-10-19 09:58:39.466
10,4,6,15,8,13,4,9,6,7,4,2,2,1,2020-10-19 09:58:39.503
18,2,17,8,30,6,15,2,15,4,7,1,8,3,4,2020-10-19 09:58:39.538
25,19,2,32,4,16,2,16,9,2,1,4,4,6,2020-10-19 09:58:39.574
34,2,24,2,47,4,16,4,17,2,17,5,6,7,2020-10-19 09:58:39.618
37,25,6,39,13,13,8,17,4,9,9,6,2020-10-19 09:58:39.663
30,6,27,49,9,4,16,8,15,6,9,6,9,6,2020-10-19 09:58:39.700
26,6,21,2,36,8,8,6,12,2,16,2,10,6,9,8,2020-10-19 09:58:39.736
31,30,50,6,9,8,21,8,22,14,4,11,2,2020-10-19 09:58:39.779
28,2,35,6,43,4,10,2,19,8,15,6,10,10,8,2020-10-19 09:58:39.820
25,32,8,44,4,10,8,30,4,18,6,7,9,2,2020-10-19 09:58:39.858
33,6,35,8,34,4,9,4,27,8,16,6,7,11,2,2020-10-19 09:58:39.898
32,2,33,2,46,6,8,2,27,4,16,6,6,2,9,8,2020-10-19 09:58:39.937
23,2,24,4,32,6,7,19,4,8,8,3,8,10,8,2020-10-19 09:58:39.974
20,2,15,24,2,5,20,2,6,4,4,9,8,2020-10-19 09:58:40.014
19,4,13,2,22,2,4,6,16,6,3,6,4,10,6,2020-10-19 09:58:40.049
8,8,8,8,18,4,4,6,14,8,3,4,3,4,8,2020-10-19 09:58:40.087
6,8,8,5,2,4,8,13,2,2,6,3,6,6,2020-10-19 09:58:40.123
5,8,7,4,3,6,4,8,13,2,2,2,4,2,2020-10-19 09:58:40.162
2,8,5,8,4,4,5,8,11,2,3,1,8,3,6,2020-10-19 09:58:40.199
3,5,4,4,4,5,6,2,8,1,6,1,8,2020-10-19 09:58:40.237
2,8,5,4,6,4,5,8,3,4,1,8,2,4,2020-10-19 09:58:40.272
2,4,2,6,3,6,4,6,5,8,3,2,2,2,6,2020-10-19 09:58:40.312
1,4,2,3,3,4,8,2,8,2,1,6,2020-10-19 09:58:40.350
1,2,1,8,2,2,2,4,2,1,6,1,6,1,4,2020-10-19 09:58:40.387
1,2,2,2,2,2,3,1,8,1,2,1,6,2020-10-19 09:58:40.424
1,2,2,1,8,2,4,3,1,4,1,1,6,2020-10-19 09:58:40.462
1,2,2,1,2,2,3,1,8,1,2,2,2020-10-19 09:58:40.500
1,8,2,2,2,2,2,2,2,2,1,8,2,2,2020-10-19 09:58:40.539
1,6,2,2,6,2,8,1,8,1,8,2,2,2,2020-10-19 09:58:40.575
1,8,3,4,10,2,3,2,3,8,4,6,3,4,2,6,2020-10-19 09:58:40.616
3,4,8,10,4,4,6,3,6,12,6,2,2,8,2020-10-19 09:58:40.653
14,21,4,15,4,10,4,13,8,25,4,11,8,6,6,2020-10-19 09:58:40.693
17,2,33,8,22,8,13,21,27,8,13,6,6,2020-10-19 09:58:40.730
28,8,35,27,16,6,21,4,27,8,14,6,8,2,2020-10-19 09:58:40.768
33,8,35,4,30,17,6,25,8,25,4,13,6,7,8,2020-10-19 09:58:40.806
41,4,39,8,32,2,16,6,26,6,21,8,11,8,2,2020-10-19 09:58:40.843
32,4,25,8,39,2,14,18,2,8,2,5,4,4,2020-10-19 09:58:40.881
35,8,25,33,6,14,4,11,8,5,2,3,8,4,4,2020-10-19 09:58:40.919
27,4,27,29,13,6,18,8,8,3,4,4,4,2020-10-19 09:58:40.959
39,4,41,4,20,13,2,12,6,10,4,6,9,2,2020-10-19 09:58:40.994
55,6,60,6,22,2,16,6,12,8,10,6,6,8,14,2,2020-10-19 09:58:41.034
57,6,60,8,17,4,14,4,13,4,10,8,7,6,16,2020-10-19 09:58:41.071
60,4,54,8,15,11,6,20,2,11,2,8,15,8,2020-10-19 09:58:41.108
59,4,58,22,2,12,2,14,4,12,7,8,15,4,2020-10-19 09:58:41.145
42,2,45,37,6,12,6,19,6,11,7,2,11,2020-10-19 09:58:41.185
25,4,34,46,4,9,8,24,6,16,6,6,6,2020-10-19 09:58:41.223
45,8,45,2,41,4,8,8,24,17,2,4,8,8,6,2020-10-19 09:58:41.260
50,2,42,6,43,2,9,2,16,4,18,5,2,9,6,2020-10-19 09:58:41.299
60,6,51,8,48,9,8,19,6,29,8,9,11,2,2020-10-19 09:58:41.336
63,6,49,2,42,2,8,4,16,30,2,8,8,11,8,2020-10-19 09:58:41.372
56,4,35,4,29,2,8,2,13,22,8,8,10,2,2020-10-19 09:58:41.410
34,23,4,28,8,8,12,22,4,8,6,6,2020-10-19 09:58:41.449
20,8,20,27,2,8,6,12,4,21,2,7,2,5,2020-10-19 09:58:41.488
8,6,5,18,4,2,7,6,2,2,2,2,2020-10-19 09:58:41.524
6,4,6,6,8,6,11,8,5,2,2,2,2,2020-10-19 09:58:41.561
5,4,7,2,7,6,7,6,10,2,3,4,2,2,2,4,2020-10-19 09:58:41.599
4,4,7,2,8,7,4,21,3,3,2,6,2020-10-19 09:58:41.639
3,4,7,4,9,7,4,20,4,3,4,3,2,4,2020-10-19 09:58:41.678
2,8,6,6,6,8,6,6,23,2,3,4,3,2,2,4,2020-10-19 09:58:41.719
2,4,4,6,6,2,21,4,2,6,2,6,1,8,2020-10-19 09:58:41.759
1,8,3,2,5,8,4,20,8,4,2,1,2,2020-10-19 09:58:41.803
0,8,2,8,4,2,4,8,18,6,3,8,1,2,0,8,2020-10-19 09:58:41.840
1,2,4,2,2,8,3,8,19,4,4,4,1,1,2020-10-19 09:58:41.885
1,2,4,4,2,2,4,4,17,2,4,2,1,2,1,4,2020-10-19 09:58:41.924
1,4,4,2,2,3,6,12,2,3,8,1,2,1,2020-10-19 09:58:41.962
1,4,4,2,2,6,3,8,12,4,2,1,2,1,2,2020-10-19 09:58:42.000
1,4,2,6,2,5,3,2,1,6,1,2,1,2020-10-19 09:58:42.043
0,8,0,6,1,6,5,8,5,6,1,4,1,8,0,8,2020-10-19 09:58:42.084
1,0,6,1,6,5,6,5,2,1,4,1,4,0,4,2020-10-19 09:58:42.122
1,4,0,6,1,2,4,6,5,6,1,2,1,4,1,2020-10-19 09:58:42.158
1,6,0,6,0,4,5,4,6,2,1,2,1,2,0,8,2020-10-19 09:58:42.195
1,4,0,4,0,6,3,2,7,6,1,6,1,2,1,2020-10-19 09:58:42.233
1,4,0,6,1,3,4,8,1,0,6,1,2,2020-10-19 09:58:42.269
1,4,0,6,1,2,2,4,4,8,1,4,0,8,1,2020-10-19 09:58:42.307
1,2,1,4,3,3,8,5,4,2,1,0,6,2020-10-19 09:58:42.344
0,8,3,2,4,2,3,6,6,6,2,2,1,4,1,2,2020-10-19 09:58:42.383
2,4,3,6,5,4,5,2,7,4,3,2,2,4,2,2,2020-10-19 09:58:42.423
3,2,4,2,10,2,8,4,13,2,8,4,2,4,2,2020-10-19 09:58:42.457
8,2,9,2,12,8,13,4,18,15,2,4,2,3,6,2020-10-19 09:58:42.495
8,6,9,20,6,14,2,21,6,15,6,4,8,2020-10-19 09:58:42.534
14,8,11,25,4,13,6,21,22,7,4,6,2020-10-19 09:58:42.573
24,6,11,8,33,4,14,6,19,2,20,6,6,8,7,2,2020-10-19 09:58:42.611
29,14,4,35,4,11,4,17,20,6,8,8,8,2020-10-19 09:58:42.654
24,6,14,6,52,9,4,15,8,17,4,8,6,8,2020-10-19 09:58:42.694
27,2,17,57,6,11,2,13,4,20,6,6,2,6,2020-10-19 09:58:42.734
25,4,14,4,54,4,13,2,16,6,14,6,5,4,5,8,2020-10-19 09:58:42.770
24,8,19,4,53,11,8,16,6,18,6,2,4,6,2020-10-19 09:58:42.809
20,18,4,59,8,14,6,15,15,2,5,2,4,6,2020-10-19 09:58:42.845
30,2,20,4,59,4,19,4,11,4,14,4,4,4,5,4,2020-10-19 09:58:42.885
41,8,18,4,52,4,16,6,14,4,11,4,4,2,6,8,2020-10-19 09:58:42.922
39,6,19,8,69,2,16,10,12,8,5,6,4,2020-10-19 09:58:42.962
30,16,8,63,8,15,10,13,6,5,6,2020-10-19 09:58:43.000
30,2,17,6,69,2,11,8,10,8,12,6,4,8,5,8,2020-10-19 09:58:43.039
20,4,16,4,56,8,9,8,11,15,4,5,6,5,4,2020-10-19 09:58:43.075
20,2,24,8,63,2,13,4,16,2,20,8,6,14,2,2020-10-19 09:58:43.115
24,26,50,15,4,15,4,19,8,8,4,14,8,2020-10-19 09:58:43.153
35,6,32,60,4,19,4,15,8,18,8,4,16,6,2020-10-19 09:58:43.190
38,29,65,8,24,4,19,4,16,8,7,8,17,6,2020-10-19 09:58:43.227
40,2,24,8,59,22,6,22,6,18,7,2,17,2020-10-19 09:58:43.267
29,2,15,2,51,2,19,4,14,2,13,2,4,4,7,2,2020-10-19 09:58:43.306
24,11,6,47,8,19,2,15,8,16,4,6,5,8,2020-10-19 09:58:43.342
11,6,2,6,35,2,15,4,16,2,14,6,3,6,3,4,2020-10-19 09:58:43.377
9,2,3,6,11,6,10,8,10,6,14,8,3,4,2,2,2020-10-19 09:58:43.415
6,2,4,6,15,2,7,4,9,4,8,8,3,2,2020-10-19 09:58:43.451
2,8,4,8,10,4,7,4,12,6,9,4,3,2,1,4,2020-10-19 09:58:43.489
2,6,6,4,9,4,6,2,16,8,5,8,2,4,1,8,2020-10-19 09:58:43.524
2,6,6,8,9,6,7,2,17,2,4,8,2,2,1,6,2020-10-19 09:58:43.562
2,5,6,10,6,8,2,17,4,6,2,2,1,6,2020-10-19 09:58:43.598
2,4,3,4,7,2,10,2,17,3,6,2,8,2,2,2020-10-19 09:58:43.638
2,4,3,2,6,2,9,4,12,2,3,2,6,2,2,2020-10-19 09:58:43.674
1,8,1,6,4,8,10,4,8,8,2,6,2,1,4,2020-10-19 09:58:43.712
1,6,1,2,4,4,9,4,7,8,2,6,2,1,4,2020-10-19 09:58:43.750
1,8,3,4,2,8,9,6,10,2,4,2,2,1,4,2020-10-19 09:58:43.789
1,6,3,6,4,8,8,4,8,8,2,4,2,1,2,2020-10-19 09:58:43.825
1,2,3,8,4,6,9,4,22,6,6,8,2,4,0,8,2020-10-19 09:58:43.864
1,2,3,8,4,8,6,8,22,8,7,6,2,6,0,8,2020-10-19 09:58:43.903
1,4,8,5,4,7,23,7,6,2,8,0,8,2020-10-19 09:58:43.942
1,2,8,5,4,7,21,2,8,4,3,2,0,8,2020-10-19 09:58:43.978
0,4,1,8,3,8,6,2,20,4,8,2,2,8,0,8,2020-10-19 09:58:44.019
1,3,2,3,2,4,8,9,3,6,2,8,1,2020-10-19 09:58:44.056
1,2,4,2,6,5,4,7,6,2,2,2,6,1,2,2020-10-19 09:58:44.092
1,8,3,6,2,7,11,8,2,6,2,6,1,6,2020-10-19 09:58:44.128
1,8,3,6,1,4,6,14,4,1,8,2,4,1,4,2020-10-19 09:58:44.168
2,4,1,2,6,14,2,3,2,8,1,2,2020-10-19 09:58:44.206
1,6,2,4,1,2,7,2,11,6,3,2,4,1,2,2020-10-19 09:58:44.244
2,2,1,8,1,4,5,6,10,4,2,8,2,4,1,2,2020-10-19 09:58:44.280
1,8,1,4,1,6,3,8,5,8,2,4,2,1,2020-10-19 09:58:44.318
1,8,1,6,2,3,6,2,2,2,6,1,6,0,8,2020-10-19 09:58:44.354
2,2,2,4,2,2,3,8,2,6,2,8,1,6,1,2,2020-10-19 09:58:44.392
2,4,2,8,2,8,2,2,3,8,3,4,2,1,2,2020-10-19 09:58:44.430
2,2,3,2,6,2,6,4,4,3,4,1,6,1,4,2020-10-19 09:58:44.469
2,8,3,6,4,2,4,8,4,5,2,3,2,2,2,2020-10-19 09:58:44.506
2,6,3,8,3,6,2,2,8,2,5,3,2,6,2020-10-19 09:58:44.544
2,6,3,6,3,6,1,6,8,4,4,8,2,8,2,4,2020-10-19 09:58:44.583
2,4,4,4,3,8,2,2,8,2,4,2,2,4,2020-10-19 09:58:44.622
4,2,3,8,4,4,1,8,8,4,5,2,4,2,2,2020-10-19 09:58:44.658
4,4,3,6,2,8,3,6,4,4,3,6,1,4,1,6,2020-10-19 09:58:44.696
4,2,3,2,2,8,3,4,4,4,6,2,2,1,4,2020-10-19 09:58:44.730
4,2,2,4,2,6,4,3,6,4,8,2,2,1,2,2020-10-19 09:58:44.771
4,8,1,2,4,4,5,4,4,4,6,2,8,1,4,2020-10-19 09:58:44.809
2,8,2,2,4,6,5,4,4,3,8,2,6,1,4,2020-10-19 09:58:44.847
2,1,4,6,4,4,8,4,8,3,2,2,1,2,2020-10-19 09:58:44.884
3,2,1,4,8,2,5,2,4,6,2,6,1,8,1,2,2020-10-19 09:58:44.923
3,6,1,6,8,8,5,2,5,6,1,6,1,4,1,2,2020-10-19 09:58:44.961
3,4,1,8,6,8,3,8,4,8,1,8,1,4,1,2,2020-10-19 09:58:44.997
3,2,2,6,8,4,4,3,8,2,4,1,6,1,2020-10-19 09:58:45.033
4,2,2,2,5,8,4,2,3,8,3,6,1,6,0,8,2020-10-19 09:58:45.072
3,8,2,2,5,2,5,5,2,4,2,1,2,0,8,2020-10-19 09:58:45.109
5,4,2,6,5,8,4,4,2,5,1,2,0,6,2020-10-19 09:58:45.146
5,8,3,5,2,4,4,3,6,6,8,1,6,0,8,2020-10-19 09:58:45.185
9,4,5,2,4,4,4,6,3,8,5,6,1,6,1,8,2020-10-19 09:58:45.227
14,6,7,3,8,3,4,2,4,5,8,1,8,2,4,2020-10-19 09:58:45.263
