Avg EMG - Pod01,Avg EMG - Pod02,Avg EMG - Pod03,Avg EMG - Pod04,Avg EMG - Pod05,Avg EMG - Pod06,Avg EMG - Pod07,Avg EMG - Pod08,Start Timestamp
0,0,0,0,0,0,0,1,2,2020-10-21 18:07:12.268
0,0,0,0,0,0,0,1,4,2020-10-21 18:07:12.284
0,0,0,0,0,0,0,1,8,2020-10-21 18:07:12.301
1,4,0,6,0,2,0,0,0,0,2,2,2,2020-10-21 18:07:12.318
2,4,0,8,0,2,0,2,0,4,0,8,0,2,2,6,2020-10-21 18:07:12.335
2,6,0,8,0,6,0,2,0,4,0,8,0,4,2,6,2020-10-21 18:07:12.352
2,8,0,8,1,0,2,0,4,0,8,0,6,3,2020-10-21 18:07:12.368
4,4,1,2,1,4,0,2,0,6,1,0,6,2,6,2020-10-21 18:07:12.384
3,2,0,6,1,4,0,4,0,8,1,2,0,4,2,6,2020-10-21 18:07:12.402
2,4,0,6,1,4,0,2,0,8,0,4,1,2,2,6,2020-10-21 18:07:12.419
2,4,0,8,1,0,2,1,2,0,4,1,8,2,8,2020-10-21 18:07:12.435
2,4,1,0,6,0,2,1,6,0,4,2,4,2,2,2020-10-21 18:07:12.452
1,2,1,8,0,6,0,2,1,6,0,2,2,6,2,4,2020-10-21 18:07:12.469
4,2,6,0,4,0,4,1,8,0,2,3,2,2020-10-21 18:07:12.485
4,6,2,4,0,8,0,8,2,0,2,2,4,1,6,2020-10-21 18:07:12.502
5,2,2,1,1,1,8,0,4,2,1,2,2020-10-21 18:07:12.519
5,6,2,6,1,2,1,4,1,4,0,6,1,4,2,2,2020-10-21 18:07:12.536
6,2,2,1,2,1,8,1,8,1,1,4,2,4,2020-10-21 18:07:12.552
5,2,1,4,1,6,1,4,1,6,1,1,2,2,8,2020-10-21 18:07:12.569
5,6,1,6,1,4,1,6,1,1,2,1,3,2020-10-21 18:07:12.585
5,2,1,4,1,6,1,1,0,8,3,4,2020-10-21 18:07:12.603
4,4,1,6,1,6,1,2,1,1,0,6,2,6,2020-10-21 18:07:12.619
3,8,1,2,1,4,1,0,8,0,8,0,4,2,2,2020-10-21 18:07:12.636
3,1,1,4,1,6,0,8,0,8,0,6,2,6,2020-10-21 18:07:12.653
3,1,6,1,2,1,2,1,0,8,0,8,2,8,2020-10-21 18:07:12.669
3,8,1,6,1,2,1,2,0,8,1,1,2,4,2020-10-21 18:07:12.685
4,1,8,1,1,4,1,0,8,1,2,4,2020-10-21 18:07:12.702
4,4,1,6,1,1,2,0,8,0,8,1,8,2,4,2020-10-21 18:07:12.719
4,8,1,8,0,8,0,8,0,8,1,1,4,1,8,2020-10-21 18:07:12.735
4,2,1,2,1,1,0,6,1,1,4,1,4,2020-10-21 18:07:12.753
3,8,1,2,0,8,1,1,2,1,4,1,6,1,8,2020-10-21 18:07:12.769
4,6,1,0,6,1,1,1,4,1,8,1,6,2020-10-21 18:07:12.785
5,2,1,2,0,6,1,2,0,8,1,2,1,2,2020-10-21 18:07:12.803
3,8,1,0,6,1,0,6,1,2,1,2,2020-10-21 18:07:12.819
4,1,2,0,4,0,6,0,8,1,1,2,2020-10-21 18:07:12.836
5,2,1,6,0,6,0,8,1,0,8,0,8,1,6,2020-10-21 18:07:12.853
5,8,2,8,1,0,6,1,1,2,0,8,1,4,2020-10-21 18:07:12.869
4,6,2,8,0,8,0,4,1,6,1,2,1,4,1,2020-10-21 18:07:12.885
6,4,2,8,0,6,1,2,1,2,1,6,1,4,2020-10-21 18:07:12.902
5,8,2,4,1,1,2,2,2,2,2,2020-10-21 18:07:12.919
5,6,2,6,1,4,0,8,1,4,2,1,8,2,2,2020-10-21 18:07:12.935
4,4,1,6,1,4,1,1,6,2,2,1,6,2,2,2020-10-21 18:07:12.952
4,4,1,6,2,1,6,1,2,2,1,2,2020-10-21 18:07:12.969
3,4,2,2,2,1,0,6,1,8,0,8,2,2020-10-21 18:07:12.985
3,8,2,2,1,0,4,1,0,2,1,6,2020-10-21 18:07:13.003
3,2,1,4,1,8,1,0,6,1,0,6,1,6,2020-10-21 18:07:13.019
4,8,1,6,1,6,1,0,6,0,4,1,1,8,2020-10-21 18:07:13.036
6,2,2,1,2,0,6,0,8,1,1,4,2,2020-10-21 18:07:13.053
5,2,2,1,2,1,1,1,1,6,1,4,2020-10-21 18:07:13.070
4,6,2,2,1,2,1,1,4,1,4,1,8,2,2020-10-21 18:07:13.086
4,8,2,2,1,0,8,1,1,2,1,6,1,8,2020-10-21 18:07:13.103
4,6,2,1,0,8,1,2,1,8,1,2,1,8,2020-10-21 18:07:13.119
4,8,1,8,1,0,8,1,4,1,4,1,4,1,8,2020-10-21 18:07:13.135
4,6,1,6,1,2,0,4,1,2,1,6,1,2,2,2,2020-10-21 18:07:13.152
4,8,1,6,1,0,6,1,1,4,1,1,4,2020-10-21 18:07:13.169
5,6,1,4,1,2,0,8,1,1,6,0,8,1,4,2020-10-21 18:07:13.185
5,1,8,1,0,8,0,8,1,2,1,2,3,2020-10-21 18:07:13.202
3,6,1,4,1,0,6,0,4,1,0,8,2,8,2020-10-21 18:07:13.219
4,2,1,6,0,8,1,0,8,0,8,0,8,2,2,2020-10-21 18:07:13.236
4,2,2,2,1,0,8,0,8,1,0,8,2,8,2020-10-21 18:07:13.253
3,2,2,2,0,6,1,1,0,8,1,3,2020-10-21 18:07:13.269
2,2,1,6,1,0,8,0,8,1,0,8,1,6,2020-10-21 18:07:13.286
3,2,1,1,1,1,2,0,6,1,8,2020-10-21 18:07:13.303
4,2,4,1,2,0,6,1,4,2,1,6,2,2020-10-21 18:07:13.320
4,2,2,1,0,6,1,2,2,1,4,1,6,2020-10-21 18:07:13.336
4,8,3,2,1,0,4,1,6,2,1,4,1,6,2020-10-21 18:07:13.353
5,6,4,0,8,0,6,2,2,1,8,1,2,1,2,2020-10-21 18:07:13.370
5,4,3,8,0,8,0,6,2,1,6,1,4,1,4,2020-10-21 18:07:13.386
5,4,3,2,0,8,0,8,1,6,0,8,0,4,1,4,2020-10-21 18:07:13.403
5,2,2,8,1,1,2,0,4,0,6,1,2020-10-21 18:07:13.420
4,2,1,4,1,2,1,1,4,0,6,0,6,1,2020-10-21 18:07:13.437
3,6,0,8,1,2,0,8,1,0,4,1,1,2,2020-10-21 18:07:13.453
5,6,0,6,1,2,0,8,1,2,0,4,1,1,2,2020-10-21 18:07:13.470
4,4,1,1,1,1,0,8,1,2,1,2020-10-21 18:07:13.486
4,6,1,4,0,8,0,8,0,8,1,1,2,1,4,2020-10-21 18:07:13.503
4,6,1,6,0,8,0,6,0,8,0,8,1,2,1,2,2020-10-21 18:07:13.519
4,8,1,8,0,8,0,6,0,8,1,1,1,2,2020-10-21 18:07:13.536
4,2,1,8,0,8,0,4,0,6,1,2,0,8,1,2020-10-21 18:07:13.553
4,6,1,4,0,6,0,4,0,6,1,2,0,6,1,4,2020-10-21 18:07:13.570
5,8,1,2,1,0,6,0,8,1,2,0,8,1,2020-10-21 18:07:13.586
6,1,8,1,0,6,0,8,1,1,0,8,2020-10-21 18:07:13.603
7,8,1,8,0,8,0,6,1,1,1,0,8,2020-10-21 18:07:13.620
5,8,1,8,1,1,2,1,1,1,2,0,6,2020-10-21 18:07:13.636
5,2,2,1,4,1,2,0,8,0,6,1,2,0,4,2020-10-21 18:07:13.653
3,6,3,2,1,2,1,0,4,0,6,1,0,8,2020-10-21 18:07:13.670
3,6,2,4,1,4,1,2,0,4,0,6,0,8,1,4,2020-10-21 18:07:13.686
1,4,2,1,4,1,4,0,2,0,4,0,8,1,6,2020-10-21 18:07:13.703
1,8,2,1,2,1,0,4,0,4,1,1,8,2020-10-21 18:07:13.720
2,1,8,1,0,8,1,0,8,1,2,1,6,2020-10-21 18:07:13.737
2,0,4,0,8,1,1,2,0,8,1,1,6,2020-10-21 18:07:13.753
2,0,6,0,6,1,1,4,0,8,0,8,1,4,2020-10-21 18:07:13.770
1,8,0,6,0,6,0,8,1,6,0,8,0,8,1,2,2020-10-21 18:07:13.786
3,2,0,6,0,8,1,6,2,2,0,6,1,1,2,2020-10-21 18:07:13.804
4,4,0,8,0,8,1,8,1,8,0,8,0,8,1,4,2020-10-21 18:07:13.820
4,8,0,8,1,1,6,1,6,0,6,0,8,1,2020-10-21 18:07:13.837
4,8,0,8,0,8,1,8,1,4,0,6,0,8,1,2020-10-21 18:07:13.854
5,0,8,1,6,2,2,1,2,1,1,1,2020-10-21 18:07:13.870
3,6,1,2,1,4,1,6,0,6,1,0,6,1,4,2020-10-21 18:07:13.886
2,6,2,1,2,1,4,0,4,0,4,0,8,1,4,2020-10-21 18:07:13.903
3,2,4,1,4,1,6,0,6,0,6,1,2,2020-10-21 18:07:13.920
2,8,2,6,1,6,1,2,0,6,1,1,1,6,2020-10-21 18:07:13.936
4,4,2,8,1,1,0,4,0,6,0,8,2,4,2020-10-21 18:07:13.953
4,6,2,6,0,8,0,8,0,6,0,8,0,8,2,2020-10-21 18:07:13.970
4,8,1,6,1,0,8,0,6,1,2,0,6,2,2020-10-21 18:07:13.986
4,8,1,6,0,8,1,2,0,4,1,0,6,1,4,2020-10-21 18:07:14.003
6,1,2,0,8,1,6,1,1,0,6,1,4,2020-10-21 18:07:14.020
4,4,1,4,0,8,1,4,1,2,1,0,6,1,2020-10-21 18:07:14.037
4,1,2,1,2,2,2,1,4,0,8,0,8,1,2020-10-21 18:07:14.054
4,4,1,6,1,2,1,6,0,6,1,2,1,2,2020-10-21 18:07:14.070
4,1,2,1,1,4,1,8,0,6,1,1,2,2020-10-21 18:07:14.087
2,6,1,6,0,8,1,1,4,0,4,1,1,8,2020-10-21 18:07:14.104
2,4,1,1,2,1,2,1,8,0,8,1,1,6,2020-10-21 18:07:14.120
2,2,0,8,1,0,4,1,2,1,1,2,2020-10-21 18:07:14.137
1,6,0,6,1,0,4,1,1,2,0,8,1,6,2020-10-21 18:07:14.154
2,2,1,1,0,8,0,8,1,4,0,8,1,8,2020-10-21 18:07:14.171
4,2,1,4,1,2,1,2,1,1,2,1,1,2,2020-10-21 18:07:14.187
4,8,1,8,0,8,1,0,4,1,0,8,0,8,2020-10-21 18:07:14.204
4,6,2,1,1,0,6,1,4,0,8,0,2,2020-10-21 18:07:14.221
4,4,1,8,1,1,4,1,1,2,1,2,0,6,2020-10-21 18:07:14.238
3,6,1,6,1,1,1,4,1,2,1,4,0,6,2020-10-21 18:07:14.253
2,4,1,0,8,0,6,1,1,6,1,6,0,6,2020-10-21 18:07:14.270
2,6,0,6,0,6,0,6,1,2,1,4,1,8,1,6,2020-10-21 18:07:14.286
3,4,1,2,0,6,0,6,1,2,0,8,1,6,1,8,2020-10-21 18:07:14.303
5,2,1,8,0,6,0,2,1,2,0,8,1,2,1,6,2020-10-21 18:07:14.320
5,1,8,0,6,0,2,1,2,0,8,1,2,1,6,2020-10-21 18:07:14.337
4,2,1,8,0,8,0,4,1,2,0,6,1,2,2,2020-10-21 18:07:14.354
3,4,1,8,0,8,0,6,1,1,1,2,1,4,2020-10-21 18:07:14.370
3,4,1,0,6,0,4,1,2,1,2,1,4,1,8,2020-10-21 18:07:14.387
3,8,1,2,1,4,0,6,1,2,1,2,1,2,1,8,2020-10-21 18:07:14.404
4,6,1,4,1,8,0,6,1,1,2,1,2,2,4,2020-10-21 18:07:14.421
5,2,1,2,1,6,0,4,1,2,1,1,2,4,2020-10-21 18:07:14.437
5,2,1,4,1,6,0,4,1,4,0,6,0,8,2,2,2020-10-21 18:07:14.454
4,8,2,2,1,4,1,1,2,0,4,0,8,1,8,2020-10-21 18:07:14.470
2,2,1,6,0,6,0,8,1,0,4,1,2,2020-10-21 18:07:14.487
2,2,1,4,0,4,1,2,1,4,0,2,1,4,1,2,2020-10-21 18:07:14.504
2,1,6,0,4,1,2,1,4,0,2,1,4,1,2020-10-21 18:07:14.521
3,8,2,6,0,6,1,1,6,0,8,1,8,1,2020-10-21 18:07:14.538
4,2,0,8,0,6,1,6,1,1,6,0,8,2020-10-21 18:07:14.554
4,8,2,1,0,8,1,6,1,1,6,0,8,2020-10-21 18:07:14.571
4,4,2,0,8,0,8,1,1,1,2,1,2,2020-10-21 18:07:14.587
4,2,1,1,2,0,8,1,1,4,1,2,2020-10-21 18:07:14.605
2,1,1,6,1,4,0,4,0,4,1,2,1,2020-10-21 18:07:14.622
2,2,1,2,1,4,1,2,0,4,0,2,1,1,6,2020-10-21 18:07:14.638
2,4,1,2,1,4,1,4,0,4,0,0,8,1,4,2020-10-21 18:07:14.654
2,2,1,2,1,4,1,2,0,4,0,2,0,8,1,4,2020-10-21 18:07:14.671
2,1,6,1,4,0,8,0,4,0,6,0,4,1,6,2020-10-21 18:07:14.687
2,1,8,0,6,1,0,6,0,8,0,4,2,2,2020-10-21 18:07:14.705
1,6,1,6,0,6,1,2,0,8,1,0,6,1,8,2020-10-21 18:07:14.721
1,1,8,0,8,1,4,0,6,1,1,1,6,2020-10-21 18:07:14.738
2,4,2,6,0,6,1,4,0,8,1,2,1,2,1,6,2020-10-21 18:07:14.755
3,4,2,0,4,1,6,1,2,1,1,4,1,4,2020-10-21 18:07:14.771
4,2,2,0,4,1,6,1,0,8,1,4,1,2,2020-10-21 18:07:14.787
4,4,2,2,0,4,1,4,0,8,0,8,1,4,1,2,2020-10-21 18:07:14.804
4,4,2,2,0,1,6,1,1,1,1,8,2020-10-21 18:07:14.821
3,2,1,6,0,4,1,6,0,8,0,8,1,1,4,2020-10-21 18:07:14.837
2,4,2,0,6,1,4,0,6,0,6,1,1,4,2020-10-21 18:07:14.855
2,6,2,0,8,1,2,1,1,1,1,2,2020-10-21 18:07:14.872
2,2,0,8,1,8,1,6,1,1,2,1,2020-10-21 18:07:14.888
1,8,2,1,1,1,4,1,1,4,0,8,2020-10-21 18:07:14.905
2,4,1,8,0,8,0,8,1,6,1,4,1,1,2,2020-10-21 18:07:14.922
3,2,1,4,0,8,0,8,1,8,1,4,1,2,1,4,2020-10-21 18:07:14.937
3,2,1,6,1,0,8,1,6,1,2,1,2,1,6,2020-10-21 18:07:14.954
3,4,1,8,1,4,0,8,1,1,2,1,2,2,2020-10-21 18:07:14.971
4,2,1,4,0,8,1,1,1,4,1,8,2020-10-21 18:07:14.987
4,4,2,4,1,2,1,0,8,0,6,1,4,1,4,2020-10-21 18:07:15.004
5,6,2,6,1,4,1,2,0,6,0,8,1,1,2020-10-21 18:07:15.021
7,2,1,4,1,2,0,6,0,8,0,8,1,2020-10-21 18:07:15.038
6,8,1,6,1,0,8,0,8,0,8,0,6,0,8,2020-10-21 18:07:15.055
6,4,1,2,0,8,1,1,1,0,4,1,2020-10-21 18:07:15.071
8,0,8,1,1,2,1,1,2,0,8,1,2020-10-21 18:07:15.087
6,2,0,8,1,1,6,0,8,1,2,1,1,2,2020-10-21 18:07:15.105
4,6,1,0,8,1,8,0,6,1,1,1,2020-10-21 18:07:15.121
4,6,1,4,1,2,1,8,0,2,1,1,1,2020-10-21 18:07:15.138
5,2,1,4,1,6,1,8,0,4,1,0,8,0,8,2020-10-21 18:07:15.155
2,8,1,4,1,6,1,6,0,6,0,6,0,6,1,2020-10-21 18:07:15.172
3,6,1,4,1,2,1,4,1,0,6,0,4,1,2,2020-10-21 18:07:15.188
3,4,1,2,1,2,1,2,1,0,6,0,4,1,2020-10-21 18:07:15.205
3,4,1,1,1,4,1,4,0,6,0,4,1,2,2020-10-21 18:07:15.222
2,6,1,6,0,6,1,4,1,2,0,6,0,8,1,4,2020-10-21 18:07:15.238
2,6,1,8,0,4,1,4,1,2,0,8,0,8,1,4,2020-10-21 18:07:15.255
1,4,2,0,4,1,2,1,0,8,0,8,1,2,2020-10-21 18:07:15.272
1,2,2,2,0,2,1,2,1,2,1,0,8,1,6,2020-10-21 18:07:15.289
2,4,2,0,0,8,0,8,1,0,8,1,6,2020-10-21 18:07:15.305
2,6,1,4,0,2,0,6,0,6,1,0,4,1,2,2020-10-21 18:07:15.322
4,1,6,0,6,0,6,0,4,1,2,0,8,1,4,2020-10-21 18:07:15.339
4,6,1,4,0,6,0,6,0,4,1,0,8,1,2,2020-10-21 18:07:15.356
5,4,1,2,0,6,0,6,0,2,1,1,0,8,2020-10-21 18:07:15.371
4,4,2,2,0,8,0,8,0,6,1,0,8,1,4,2020-10-21 18:07:15.389
4,4,2,2,1,1,2,1,2,1,2,0,8,1,8,2020-10-21 18:07:15.405
3,1,6,1,1,6,1,6,0,8,0,4,1,8,2020-10-21 18:07:15.421
2,8,1,6,1,2,1,4,1,8,0,8,0,6,2,2020-10-21 18:07:15.438
2,4,1,8,1,6,1,4,1,8,0,6,0,8,2,2020-10-21 18:07:15.455
2,1,4,1,8,1,4,1,4,0,6,0,8,1,2020-10-21 18:07:15.471
2,8,1,6,1,6,1,2,0,8,0,8,1,6,0,8,2020-10-21 18:07:15.488
2,2,1,8,1,2,0,6,0,4,1,2,2,2,0,6,2020-10-21 18:07:15.504
2,2,1,6,1,2,0,8,0,2,1,4,2,2,0,6,2020-10-21 18:07:15.522
2,8,1,4,0,8,1,2,1,1,4,1,8,1,2020-10-21 18:07:15.538
3,4,1,0,4,1,2,1,2,1,8,2,1,8,2020-10-21 18:07:15.555
2,8,0,8,0,6,1,4,1,4,1,4,1,4,1,6,2020-10-21 18:07:15.572
3,4,0,8,1,1,8,1,6,1,2,0,8,1,8,2020-10-21 18:07:15.589
3,4,1,1,1,6,1,6,1,0,6,1,6,2020-10-21 18:07:15.605
2,6,1,2,1,1,2,1,1,0,6,1,4,2020-10-21 18:07:15.622
2,2,1,2,1,2,1,4,1,0,6,0,6,1,2020-10-21 18:07:15.639
1,8,1,2,1,1,1,2,0,6,0,8,1,2020-10-21 18:07:15.655
1,8,1,4,1,0,8,1,2,0,4,1,2,1,2020-10-21 18:07:15.672
1,6,2,0,8,1,1,2,1,1,2,1,2,2020-10-21 18:07:15.689
1,8,2,2,1,1,1,4,1,2,1,4,1,2020-10-21 18:07:15.705
1,6,2,2,0,8,1,2,1,8,1,1,4,0,6,2020-10-21 18:07:15.723
2,6,2,2,0,6,1,6,1,6,1,1,0,6,2020-10-21 18:07:15.739
2,2,0,4,1,4,1,8,1,6,0,6,0,4,2020-10-21 18:07:15.756
2,1,2,0,8,1,2,1,8,1,4,0,6,0,4,2020-10-21 18:07:15.773
2,1,1,2,1,2,1,8,1,4,0,8,0,6,2020-10-21 18:07:15.788
2,4,1,2,1,4,0,6,1,4,1,6,1,1,2020-10-21 18:07:15.805
2,6,1,2,1,4,0,2,1,2,1,6,1,2,1,4,2020-10-21 18:07:15.822
2,6,1,1,4,0,4,1,1,2,1,2,1,6,2020-10-21 18:07:15.839
3,1,6,1,0,8,1,1,1,6,1,8,2020-10-21 18:07:15.855
3,1,8,0,8,1,1,1,1,4,2,2020-10-21 18:07:15.872
4,4,2,1,1,2,1,4,1,2,1,2,2,2,2020-10-21 18:07:15.889
3,2,2,2,1,2,1,6,2,1,2,1,2,2,2020-10-21 18:07:15.905
3,8,2,4,1,1,4,2,1,2,1,2,2,2020-10-21 18:07:15.922
3,8,1,8,1,1,2,2,1,2,0,8,2,2020-10-21 18:07:15.939
3,4,1,2,0,6,1,1,6,1,2,0,6,2,2,2020-10-21 18:07:15.956
1,8,0,6,0,2,1,1,1,0,4,1,6,2020-10-21 18:07:15.973
2,6,0,4,0,2,0,6,0,4,1,0,4,1,4,2020-10-21 18:07:15.989
2,2,0,8,0,2,0,8,0,2,1,0,8,1,4,2020-10-21 18:07:16.005
2,2,0,8,0,4,1,0,2,0,8,1,1,8,2020-10-21 18:07:16.023
3,2,1,4,0,6,0,8,0,8,0,8,1,6,1,6,2020-10-21 18:07:16.039
3,2,1,6,0,6,1,1,2,0,6,2,2,2020-10-21 18:07:16.056
3,1,6,0,6,1,2,1,4,0,6,2,2,2,2020-10-21 18:07:16.073
3,1,0,8,1,2,1,8,0,4,1,8,1,8,2020-10-21 18:07:16.089
3,2,1,4,0,8,1,2,1,6,0,8,1,6,1,2,2020-10-21 18:07:16.106
3,8,1,6,1,1,2,1,4,0,8,1,1,2,2020-10-21 18:07:16.123
4,2,1,8,1,4,1,2,1,2,0,8,0,8,0,8,2020-10-21 18:07:16.140
4,6,1,8,1,4,1,1,2,0,8,0,6,1,2,2020-10-21 18:07:16.156
4,4,2,4,1,2,0,8,0,8,0,8,0,8,1,2,2020-10-21 18:07:16.172
4,2,2,4,1,2,0,4,1,2,0,8,1,2,1,2020-10-21 18:07:16.189
2,6,2,1,0,8,1,0,8,1,4,0,6,2020-10-21 18:07:16.205
3,1,6,0,8,1,1,0,8,1,4,1,2020-10-21 18:07:16.222
2,4,1,8,1,1,0,8,1,1,6,1,2020-10-21 18:07:16.239
2,6,1,6,1,1,2,1,1,1,4,1,2,2020-10-21 18:07:16.256
2,2,1,4,1,1,2,0,8,0,8,1,1,4,2020-10-21 18:07:16.273
2,4,1,4,1,0,8,0,8,0,8,0,8,1,6,2020-10-21 18:07:16.289
3,2,0,8,0,4,1,2,0,8,0,8,1,4,2020-10-21 18:07:16.305
2,8,1,8,0,6,0,6,1,4,0,4,0,4,1,2,2020-10-21 18:07:16.323
2,6,1,6,0,6,0,8,1,4,0,6,0,4,1,2020-10-21 18:07:16.339
2,4,1,6,0,4,1,2,1,4,0,6,0,6,0,8,2020-10-21 18:07:16.356
3,2,1,2,0,2,1,8,1,4,0,4,0,8,0,8,2020-10-21 18:07:16.373
2,4,0,8,0,4,1,8,0,8,0,6,0,8,1,4,2020-10-21 18:07:16.390
2,2,0,8,0,4,1,8,0,8,0,6,0,8,1,2,2020-10-21 18:07:16.406
2,6,0,8,1,1,4,0,8,0,6,0,6,1,2,2020-10-21 18:07:16.423
3,1,1,2,1,2,0,8,0,4,0,6,1,4,2020-10-21 18:07:16.440
2,8,1,2,1,6,0,8,0,8,0,6,0,4,1,2,2020-10-21 18:07:16.457
2,1,4,1,8,0,8,1,0,6,0,2,0,4,2020-10-21 18:07:16.473
2,1,6,1,6,0,8,1,0,6,0,4,0,6,2020-10-21 18:07:16.490
3,2,2,1,1,2,0,8,0,6,0,6,2,2020-10-21 18:07:16.506
3,2,2,1,1,0,8,0,8,0,6,2,4,2020-10-21 18:07:16.523
2,4,2,0,6,1,8,1,0,8,0,8,2,6,2020-10-21 18:07:16.540
3,2,2,2,0,2,1,8,1,0,6,1,2,6,2020-10-21 18:07:16.556
3,6,2,0,2,2,2,1,2,1,0,8,2,8,2020-10-21 18:07:16.573
2,4,1,4,0,4,2,1,4,1,2,0,6,2,2020-10-21 18:07:16.589
3,1,2,0,2,2,1,4,1,0,6,1,8,2020-10-21 18:07:16.606
5,2,2,2,0,6,1,2,1,1,0,8,2,2020-10-21 18:07:16.623
6,8,2,1,1,0,8,1,2,1,2,2020-10-21 18:07:16.640
6,6,1,8,1,2,0,6,0,8,0,8,1,2,1,6,2020-10-21 18:07:16.656
6,6,2,1,0,8,0,8,0,6,1,2,1,2020-10-21 18:07:16.673
6,8,1,8,1,4,0,8,0,8,0,6,1,0,6,2020-10-21 18:07:16.690
5,8,0,8,1,2,0,8,0,8,0,6,0,6,0,2,2020-10-21 18:07:16.706
3,8,0,6,0,8,0,8,1,0,6,0,4,0,8,2020-10-21 18:07:16.723
3,6,1,6,0,8,0,6,1,1,0,4,2,2020-10-21 18:07:16.740
3,8,1,8,0,8,0,6,0,8,0,8,0,4,2,2020-10-21 18:07:16.757
3,1,6,0,4,0,6,0,6,1,0,8,2,2,2020-10-21 18:07:16.773
1,8,1,8,0,4,0,6,1,4,1,4,1,2,6,2020-10-21 18:07:16.790
2,1,6,0,4,0,8,1,4,1,4,0,8,2,2020-10-21 18:07:16.807
1,8,1,0,8,1,4,1,1,4,0,8,1,2,2020-10-21 18:07:16.824
2,2,1,1,1,2,1,1,8,1,2,1,4,2020-10-21 18:07:16.840
3,2,1,4,1,4,1,6,1,4,1,8,1,2,1,6,2020-10-21 18:07:16.857
3,2,1,6,1,6,0,8,1,4,1,4,1,2,2020-10-21 18:07:16.873
2,8,2,1,8,1,4,0,6,1,4,1,6,1,4,2020-10-21 18:07:16.890
4,2,2,1,4,0,8,0,8,1,2,1,6,1,4,2020-10-21 18:07:16.906
3,2,2,1,4,0,8,0,8,1,1,2,1,4,2020-10-21 18:07:16.923
2,6,1,8,1,2,0,4,0,6,1,4,0,8,1,2020-10-21 18:07:16.940
2,8,1,2,0,8,0,4,0,4,1,4,0,6,1,2020-10-21 18:07:16.957
2,6,1,8,1,0,4,0,6,1,2,0,6,1,2,2020-10-21 18:07:16.974
1,2,1,4,1,4,0,4,0,6,1,0,4,1,2,2020-10-21 18:07:16.990
2,4,1,2,1,4,0,2,0,8,1,0,6,1,2020-10-21 18:07:17.007
2,2,1,2,1,6,0,4,0,8,0,4,0,8,1,6,2020-10-21 18:07:17.024
3,1,2,0,2,1,0,4,0,8,2,2020-10-21 18:07:17.041
3,8,0,6,2,0,6,1,0,6,1,2,1,8,2020-10-21 18:07:17.057
3,8,1,1,6,0,8,1,0,8,1,2,1,6,2020-10-21 18:07:17.074
3,1,4,1,4,1,0,8,0,6,1,4,1,4,2020-10-21 18:07:17.091
3,2,1,8,1,2,0,8,0,8,0,6,1,4,1,2020-10-21 18:07:17.107
2,4,2,4,1,2,1,0,6,0,6,1,2,1,2020-10-21 18:07:17.124
2,6,2,6,0,8,0,8,0,6,0,6,0,8,0,8,2020-10-21 18:07:17.141
4,2,2,0,8,0,8,0,4,0,6,1,2,0,8,2020-10-21 18:07:17.157
5,6,1,8,1,0,8,0,8,1,1,4,0,8,2020-10-21 18:07:17.173
7,1,4,1,1,1,1,4,1,8,1,2020-10-21 18:07:17.190
6,8,0,8,1,1,1,2,1,6,2,2,0,6,2020-10-21 18:07:17.206
6,2,0,6,1,4,1,1,2,1,6,2,2,0,6,2020-10-21 18:07:17.223
5,0,6,1,6,1,1,4,1,4,2,0,6,2020-10-21 18:07:17.240
3,0,6,1,4,1,1,1,4,1,6,1,2,2020-10-21 18:07:17.257
1,4,0,6,1,2,0,8,0,6,1,4,1,1,2,2020-10-21 18:07:17.274
1,2,0,6,0,8,1,0,8,1,4,0,6,1,4,2020-10-21 18:07:17.291
0,6,0,6,0,4,1,1,1,4,0,6,2,2020-10-21 18:07:17.307
0,4,0,8,0,2,1,4,1,1,6,0,6,2,2020-10-21 18:07:17.324
0,6,0,8,0,2,1,2,1,2,1,2,0,4,1,8,2020-10-21 18:07:17.341
0,6,0,8,0,4,1,2,1,2,0,8,0,6,2,2,2020-10-21 18:07:17.358
1,8,1,6,0,4,0,8,0,8,0,6,0,8,2,2,2020-10-21 18:07:17.374
2,1,6,0,6,1,4,0,8,0,8,0,8,1,6,2020-10-21 18:07:17.391
2,4,1,6,1,1,0,6,0,6,0,8,2,2020-10-21 18:07:17.407
3,1,6,1,2,1,2,0,6,0,6,1,1,6,2020-10-21 18:07:17.424
2,6,1,6,1,2,1,2,0,8,0,6,0,8,1,4,2020-10-21 18:07:17.441
2,2,1,1,2,1,2,1,0,6,1,1,4,2020-10-21 18:07:17.458
2,8,1,1,2,0,4,1,0,4,1,2,1,6,2020-10-21 18:07:17.474
2,4,1,2,1,0,6,1,2,0,8,1,1,2020-10-21 18:07:17.491
1,6,1,1,0,6,1,4,0,8,1,1,4,2020-10-21 18:07:17.508
1,8,1,1,2,0,6,1,2,0,8,1,4,1,2,2020-10-21 18:07:17.525
1,2,0,8,1,4,0,6,1,2,0,6,1,1,2,2020-10-21 18:07:17.540
1,8,0,6,1,2,0,8,1,0,6,0,8,1,4,2020-10-21 18:07:17.557
2,0,4,0,8,0,4,1,0,6,0,8,1,6,2020-10-21 18:07:17.574
2,0,4,0,8,0,6,0,6,0,8,1,1,6,2020-10-21 18:07:17.590
2,4,0,8,0,8,0,8,0,8,0,8,0,8,1,4,2020-10-21 18:07:17.607
3,4,1,4,0,8,1,0,6,1,0,8,1,4,2020-10-21 18:07:17.624
3,2,2,1,1,0,4,1,0,6,1,4,2020-10-21 18:07:17.641
3,1,8,1,1,2,0,6,0,8,0,6,1,6,2020-10-21 18:07:17.657
3,4,2,0,8,1,0,6,0,8,0,4,1,4,2020-10-21 18:07:17.674
3,2,1,6,0,8,1,0,6,0,8,0,2,1,4,2020-10-21 18:07:17.691
2,2,1,4,0,6,1,0,8,0,6,0,6,1,6,2020-10-21 18:07:17.707
1,6,1,0,6,0,8,1,2,0,6,0,8,1,4,2020-10-21 18:07:17.725
2,2,1,2,0,8,0,8,1,0,6,1,1,2,2020-10-21 18:07:17.741
2,1,2,1,0,6,1,2,0,6,1,1,2,2020-10-21 18:07:17.758
2,1,2,0,8,0,6,1,4,0,6,1,2,1,2,2020-10-21 18:07:17.775
2,0,8,1,0,6,1,2,0,8,1,0,8,2020-10-21 18:07:17.791
1,6,0,8,1,1,1,1,1,1,2020-10-21 18:07:17.808
1,4,0,8,0,8,1,0,8,1,1,4,0,8,2020-10-21 18:07:17.825
1,6,1,2,0,8,1,0,8,1,1,2,0,8,2020-10-21 18:07:17.841
1,6,1,0,6,1,0,6,1,2,1,0,8,2020-10-21 18:07:17.858
1,6,1,8,0,6,1,0,8,1,2,0,8,1,2020-10-21 18:07:17.875
1,8,1,8,0,4,0,6,0,6,1,0,8,0,8,2020-10-21 18:07:17.892
2,4,2,0,8,0,6,0,8,1,0,4,1,4,2020-10-21 18:07:17.908
2,1,8,0,8,0,8,0,8,0,8,0,6,1,2,2020-10-21 18:07:17.924
1,6,1,8,0,8,0,8,0,8,0,6,0,8,1,2,2020-10-21 18:07:17.941
2,1,2,0,8,0,8,0,6,0,4,1,4,1,2020-10-21 18:07:17.958
1,6,1,1,1,0,6,0,8,1,4,1,4,2020-10-21 18:07:17.974
1,4,0,8,0,8,0,8,0,8,0,8,1,4,0,8,2020-10-21 18:07:17.991
1,8,0,8,0,8,0,8,0,6,1,1,6,0,8,2020-10-21 18:07:18.007
2,4,0,8,0,8,0,6,0,6,1,1,4,0,6,2020-10-21 18:07:18.025
2,0,8,0,8,0,4,0,6,1,1,2,0,8,2020-10-21 18:07:18.042
2,6,0,8,0,6,0,4,0,6,0,4,1,4,0,8,2020-10-21 18:07:18.058
2,2,0,8,0,6,0,6,0,2,0,2,1,2,0,8,2020-10-21 18:07:18.075
2,2,0,4,1,0,4,0,2,0,2,1,0,8,2020-10-21 18:07:18.092
2,0,8,1,2,0,4,0,4,0,2,1,2,1,4,2020-10-21 18:07:18.108
2,0,8,1,2,0,6,0,4,0,4,1,1,6,2020-10-21 18:07:18.125
1,6,1,1,6,0,8,0,8,0,8,0,8,2,2020-10-21 18:07:18.142
1,4,1,1,6,0,6,1,4,1,2,0,8,2,2,2020-10-21 18:07:18.159
2,4,1,6,1,2,0,6,1,6,1,2,0,6,2,2,2020-10-21 18:07:18.174
3,1,4,1,4,0,8,1,2,1,4,0,6,1,6,2020-10-21 18:07:18.191
3,4,1,6,1,2,0,8,1,4,1,6,0,8,1,6,2020-10-21 18:07:18.208
3,4,1,6,1,2,1,6,1,4,1,4,0,8,0,6,2020-10-21 18:07:18.225
3,4,1,6,1,1,8,0,8,1,2,1,2,0,4,2020-10-21 18:07:18.242
7,2,1,2,1,2,2,1,1,1,2,0,6,2020-10-21 18:07:18.258
7,4,1,2,0,8,2,2,1,0,8,1,0,6,2020-10-21 18:07:18.275
7,2,0,8,1,2,2,1,0,6,0,6,0,4,2020-10-21 18:07:18.292
7,2,1,2,1,1,0,6,0,4,0,6,0,6,2020-10-21 18:07:18.308
7,2,1,2,1,1,0,8,0,2,0,4,1,2020-10-21 18:07:18.325
2,4,1,4,1,0,8,0,6,0,6,0,4,1,2,2020-10-21 18:07:18.342
2,1,2,1,0,6,0,8,0,6,0,6,1,4,2020-10-21 18:07:18.359
2,1,2,0,6,1,1,0,8,0,6,1,2,2020-10-21 18:07:18.376
2,2,0,8,0,8,1,1,6,1,1,1,8,2020-10-21 18:07:18.392
3,4,1,1,1,2,1,6,1,2,1,2,1,4,2020-10-21 18:07:18.409
3,2,0,8,1,1,2,1,8,1,1,4,1,2,2020-10-21 18:07:18.425
2,8,1,6,1,2,1,4,2,1,1,4,1,2,2020-10-21 18:07:18.441
2,8,2,4,1,6,1,2,2,0,6,1,6,1,8,2020-10-21 18:07:18.458
3,2,2,6,1,8,1,4,1,8,0,6,1,1,2,2020-10-21 18:07:18.475
2,2,4,1,6,1,2,2,0,4,0,8,1,4,2020-10-21 18:07:18.492
2,8,2,6,1,8,1,2,2,0,2,0,8,1,8,2020-10-21 18:07:18.508
2,8,2,4,1,4,1,2,2,4,0,2,0,8,1,8,2020-10-21 18:07:18.524
3,2,1,8,1,4,1,2,2,2,0,4,0,8,1,4,2020-10-21 18:07:18.542
2,6,1,6,1,0,8,2,0,2,1,4,1,4,2020-10-21 18:07:18.558
3,6,2,2,1,0,8,1,6,0,6,1,2,1,4,2020-10-21 18:07:18.575
2,6,2,4,1,0,6,1,2,1,1,2,0,8,2020-10-21 18:07:18.592
2,2,2,2,1,0,4,0,6,1,4,1,4,0,6,2020-10-21 18:07:18.609
1,8,2,0,8,0,2,0,6,1,4,1,6,0,6,2020-10-21 18:07:18.625
2,2,2,0,6,0,4,0,6,1,6,1,2,1,2,2020-10-21 18:07:18.642
1,6,1,4,0,6,0,4,0,8,1,4,1,4,1,2,2020-10-21 18:07:18.659
3,0,8,0,2,0,8,1,2,1,2,1,4,2,6,2020-10-21 18:07:18.676
3,2,1,2,0,4,0,8,1,2,1,1,2,8,2020-10-21 18:07:18.692
3,6,1,2,0,6,1,1,2,1,0,6,3,2,2020-10-21 18:07:18.709
3,8,1,0,8,0,8,1,1,2,0,4,3,2,2020-10-21 18:07:18.725
3,2,0,8,0,8,0,8,1,1,0,2,3,4,2020-10-21 18:07:18.742
2,8,1,4,0,8,0,8,1,1,2,0,4,3,4,2020-10-21 18:07:18.758
2,8,0,8,0,6,1,2,1,1,0,4,3,2,2020-10-21 18:07:18.775
3,1,6,0,6,1,2,1,1,2,1,4,2,2020-10-21 18:07:18.792
2,2,1,6,0,4,1,2,1,1,1,4,2020-10-21 18:07:18.809
3,4,1,8,0,6,1,2,1,1,2,1,6,4,2,2020-10-21 18:07:18.825
3,6,1,2,0,8,1,2,0,8,0,8,1,6,4,6,2020-10-21 18:07:18.842
3,6,1,6,0,8,1,0,8,0,8,2,6,6,2020-10-21 18:07:18.859
5,2,1,8,0,8,1,0,8,1,2,6,6,8,2020-10-21 18:07:18.876
6,2,2,2,1,2,1,2,1,1,2,8,12,4,2020-10-21 18:07:18.892
7,2,1,1,4,1,2,0,8,2,8,12,2020-10-21 18:07:18.909
6,8,2,4,0,8,1,1,2,1,2,6,11,2,2020-10-21 18:07:18.926
7,2,8,1,1,4,2,3,8,8,8,9,8,2020-10-21 18:07:18.943
4,8,3,6,1,2,1,4,2,4,3,8,13,4,8,2,2020-10-21 18:07:18.960
7,4,6,1,2,1,6,3,8,5,4,16,2,4,2,2020-10-21 18:07:18.976
6,7,6,2,2,1,2,3,6,6,17,2,7,4,2020-10-21 18:07:18.993
10,4,12,8,2,8,1,8,4,4,5,8,22,4,8,4,2020-10-21 18:07:19.008
10,4,14,2,3,2,3,4,9,4,10,21,10,6,2020-10-21 18:07:19.025
11,6,13,6,4,5,4,9,6,10,8,17,2,11,2020-10-21 18:07:19.043
9,6,15,2,6,8,7,2,13,10,4,22,2,10,2020-10-21 18:07:19.060
9,2,24,4,9,6,8,13,12,2,26,6,7,8,2020-10-21 18:07:19.076
7,2,25,2,10,4,8,4,12,6,12,2,22,6,2,2020-10-21 18:07:19.093
10,4,24,8,11,2,10,6,19,8,12,4,24,4,3,8,2020-10-21 18:07:19.109
13,4,37,8,18,6,9,2,24,2,13,26,4,4,6,2020-10-21 18:07:19.125
15,6,39,16,4,8,6,21,6,15,4,22,4,4,2020-10-21 18:07:19.142
17,6,32,13,8,8,4,23,2,14,8,17,6,8,2020-10-21 18:07:19.159
14,6,32,4,14,6,7,8,24,2,16,8,18,8,6,4,2020-10-21 18:07:19.176
11,8,34,4,16,3,4,17,12,8,13,4,8,4,2020-10-21 18:07:19.193
7,4,21,4,7,6,3,2,14,2,11,4,9,4,10,8,2020-10-21 18:07:19.209
4,2,19,8,1,6,15,6,8,4,6,6,13,2,2020-10-21 18:07:19.225
2,2,15,8,8,8,2,2,18,8,6,6,6,6,9,6,2020-10-21 18:07:19.243
3,2,10,6,8,2,4,19,5,4,4,9,6,2020-10-21 18:07:19.259
11,9,2,4,4,2,4,26,2,4,2,8,2020-10-21 18:07:19.276
12,4,9,6,5,4,3,4,25,8,3,6,4,6,4,6,2020-10-21 18:07:19.293
12,6,9,4,6,2,5,6,29,4,6,5,6,2,4,2020-10-21 18:07:19.310
13,8,8,4,6,2,6,4,32,8,10,10,8,3,8,2020-10-21 18:07:19.326
13,7,6,6,2,6,31,4,11,8,11,7,8,2020-10-21 18:07:19.343
4,6,4,6,6,6,6,20,4,12,4,9,2,13,2,2020-10-21 18:07:19.360
4,2,3,8,5,6,6,18,4,12,2,11,16,4,2020-10-21 18:07:19.376
5,8,3,2,3,8,5,6,13,14,10,8,17,2020-10-21 18:07:19.393
4,6,2,6,2,4,5,5,8,9,4,5,2,22,2020-10-21 18:07:19.410
4,6,3,2,2,8,5,2,6,2,7,8,4,8,23,6,2020-10-21 18:07:19.426
6,3,4,3,6,4,4,7,6,8,18,2020-10-21 18:07:19.443
6,8,3,8,3,4,5,2,4,6,6,7,8,14,8,2020-10-21 18:07:19.460
10,6,6,3,8,3,8,4,4,12,2,8,6,13,6,2020-10-21 18:07:19.476
15,8,7,4,5,4,3,6,14,11,4,10,6,2020-10-21 18:07:19.493
20,4,7,8,4,6,4,3,2,14,12,6,7,2020-10-21 18:07:19.510
27,2,8,8,4,4,3,2,4,2,22,4,17,9,2020-10-21 18:07:19.526
36,4,11,2,4,4,3,4,5,27,2,15,8,10,8,2020-10-21 18:07:19.543
43,2,8,8,4,2,3,6,4,2,17,8,15,6,11,8,2020-10-21 18:07:19.559
43,2,8,2,4,2,4,4,4,18,6,13,6,8,2,2020-10-21 18:07:19.576
38,4,9,3,4,2,6,4,4,18,4,17,4,7,2,2020-10-21 18:07:19.593
40,4,12,3,2,8,3,6,13,15,2,8,6,2020-10-21 18:07:19.610
39,4,13,2,2,6,1,8,3,2,8,4,13,4,9,8,2020-10-21 18:07:19.626
29,24,6,4,6,2,2,3,9,2,11,8,9,4,2020-10-21 18:07:19.643
23,2,27,4,10,2,2,4,2,4,7,2,12,6,9,6,2020-10-21 18:07:19.660
25,27,10,8,3,3,2,7,6,8,6,14,2020-10-21 18:07:19.676
15,4,24,4,11,2,3,2,3,4,9,4,12,11,8,2020-10-21 18:07:19.693
7,4,22,4,13,2,4,2,3,10,8,12,8,12,8,2020-10-21 18:07:19.710
16,4,20,13,6,3,2,2,8,9,6,12,4,16,2020-10-21 18:07:19.726
22,17,6,8,3,2,3,9,13,2,16,4,2020-10-21 18:07:19.744
21,15,8,6,6,2,4,2,6,10,6,13,13,8,2020-10-21 18:07:19.760
21,8,21,6,9,6,3,6,3,4,8,8,9,15,2020-10-21 18:07:19.777
28,30,6,15,2,4,6,3,8,7,17,13,2020-10-21 18:07:19.794
21,21,4,14,2,5,8,4,7,4,19,8,9,8,2020-10-21 18:07:19.810
19,6,23,15,6,2,4,11,17,8,11,8,2020-10-21 18:07:19.826
24,4,31,8,19,8,5,8,4,2,8,8,17,2,11,8,2020-10-21 18:07:19.844
25,8,39,19,8,6,4,6,6,6,8,15,2,9,2020-10-21 18:07:19.860
20,2,36,2,16,6,4,6,8,6,8,8,6,6,8,2020-10-21 18:07:19.878
18,8,38,16,2,5,6,9,12,4,16,4,7,2020-10-21 18:07:19.894
17,4,37,2,15,8,6,8,11,12,8,16,4,6,2020-10-21 18:07:19.910
11,6,31,13,8,2,11,4,12,8,17,6,2,2,2020-10-21 18:07:19.927
12,4,19,6,9,6,6,4,7,8,13,8,16,2,2,4,2020-10-21 18:07:19.944
13,4,14,5,8,4,8,7,15,14,2,2,6,2020-10-21 18:07:19.961
11,6,11,8,4,4,6,5,4,9,6,3,3,2020-10-21 18:07:19.977
9,8,10,6,4,3,2,4,8,5,6,2,2,8,2020-10-21 18:07:19.993
11,2,16,2,2,6,2,4,4,6,8,5,4,2,2020-10-21 18:07:20.010
8,8,21,3,8,1,8,6,5,2,4,8,4,6,2020-10-21 18:07:20.026
6,2,21,6,4,2,4,7,8,3,6,5,8,5,2,2020-10-21 18:07:20.044
5,4,22,4,4,2,2,7,5,6,2,4,2020-10-21 18:07:20.060
5,4,21,4,4,2,6,5,4,5,2,4,4,6,2020-10-21 18:07:20.077
6,4,14,2,4,2,4,2,6,8,4,2,5,2,3,6,2020-10-21 18:07:20.094
5,6,6,8,2,8,4,2,5,2,4,8,5,4,4,2,2020-10-21 18:07:20.110
6,4,4,8,2,8,3,6,3,6,6,6,5,6,4,6,2020-10-21 18:07:20.126
8,2,4,6,2,6,4,6,5,6,5,5,4,5,2020-10-21 18:07:20.144
8,4,6,3,2,4,4,9,5,4,4,2,5,4,2020-10-21 18:07:20.160
5,6,6,6,2,8,2,8,7,7,2,6,6,2,2020-10-21 18:07:20.177
6,4,6,4,4,4,3,8,7,2,3,4,7,2,2020-10-21 18:07:20.194
8,8,8,2,4,2,6,8,2,5,2,2,8,6,2,2020-10-21 18:07:20.210
6,8,10,3,4,1,8,6,8,9,8,3,7,2020-10-21 18:07:20.227
7,2,9,8,3,6,2,2,5,4,10,2,6,4,6,4,2020-10-21 18:07:20.244
7,8,8,3,4,2,4,6,2,8,4,6,2,6,4,2020-10-21 18:07:20.261
7,2,11,8,2,4,2,4,5,2,7,8,6,4,5,4,2020-10-21 18:07:20.278
6,2,10,8,6,6,3,4,5,8,2,6,2,6,4,2020-10-21 18:07:20.294
9,8,12,4,7,4,5,2,8,8,4,4,12,4,6,2020-10-21 18:07:20.311
9,6,12,6,7,2,3,8,8,8,4,2,9,2,6,4,2020-10-21 18:07:20.327
12,2,11,2,7,4,3,8,17,6,4,8,11,4,4,8,2020-10-21 18:07:20.345
10,6,10,6,9,8,7,4,30,2,5,6,11,6,9,4,2020-10-21 18:07:20.360
9,2,8,8,5,8,6,8,30,6,7,8,15,8,18,6,2020-10-21 18:07:20.377
6,8,6,4,6,2,6,2,32,2,9,13,2,18,4,2020-10-21 18:07:20.393
8,6,8,6,6,7,36,8,6,14,8,19,6,2020-10-21 18:07:20.410
9,8,2,5,4,8,8,28,4,9,4,14,23,6,2020-10-21 18:07:20.427
12,5,4,2,4,7,18,10,2,14,20,2020-10-21 18:07:20.444
12,2,4,4,2,2,9,2,26,7,6,10,10,6,2020-10-21 18:07:20.461
29,8,6,6,2,6,12,8,41,8,18,2,12,8,12,2,2020-10-21 18:07:20.477
38,9,4,6,12,6,39,8,19,6,18,10,8,2020-10-21 18:07:20.494
51,10,4,5,6,11,2,38,2,19,16,6,7,4,2020-10-21 18:07:20.511
56,10,4,5,6,9,41,8,20,2,15,4,6,2020-10-21 18:07:20.527
63,2,13,4,5,6,9,6,34,2,20,8,15,4,5,8,2020-10-21 18:07:20.544
44,8,11,6,4,4,12,14,2,9,4,9,4,2,2020-10-21 18:07:20.561
45,7,2,2,6,12,4,11,4,10,2,3,4,6,2020-10-21 18:07:20.578
34,6,6,4,1,8,12,4,12,2,10,2,5,4,4,2020-10-21 18:07:20.594
30,4,7,2,2,13,2,8,8,8,2,5,8,3,2020-10-21 18:07:20.611
21,4,4,2,2,8,10,8,6,8,4,5,4,2,4,2020-10-21 18:07:20.627
24,4,2,8,3,8,8,8,7,1,8,2020-10-21 18:07:20.644
15,8,5,2,6,4,8,6,4,8,0,8,2020-10-21 18:07:20.661
12,6,5,2,4,3,6,6,6,5,2,6,8,1,8,2020-10-21 18:07:20.678
11,4,4,8,2,3,8,4,6,4,6,8,2,2,2020-10-21 18:07:20.695
12,6,5,6,2,2,4,3,8,3,2,7,4,2,2,2020-10-21 18:07:20.711
10,2,6,2,2,2,8,3,4,2,8,5,8,2,2020-10-21 18:07:20.727
7,8,4,6,2,2,6,2,1,8,3,8,2,6,2020-10-21 18:07:20.744
5,6,4,8,3,8,3,8,2,2,1,4,2,6,2,2,2020-10-21 18:07:20.761
5,2,5,2,3,8,3,8,2,6,1,2,2,2,2020-10-21 18:07:20.778
5,2,4,8,3,4,6,3,4,2,4,1,2,2,4,2020-10-21 18:07:20.795
5,4,3,2,3,4,8,2,8,2,2,1,4,2,8,2020-10-21 18:07:20.811
5,6,3,4,3,2,4,3,2,2,6,2,2,2020-10-21 18:07:20.827
5,6,3,6,1,6,2,6,3,6,2,8,1,8,1,4,2020-10-21 18:07:20.844
3,8,2,6,1,6,1,6,2,8,3,1,8,1,4,2020-10-21 18:07:20.861
2,8,2,6,1,4,1,2,2,2,1,8,1,2020-10-21 18:07:20.878
2,4,3,2,1,2,1,2,1,6,1,6,1,6,0,8,2020-10-21 18:07:20.895
2,4,3,1,4,1,2,1,4,1,4,1,6,1,2,2020-10-21 18:07:20.911
2,4,1,8,1,2,1,4,0,8,1,4,2,1,2,2020-10-21 18:07:20.927
2,2,2,1,2,1,6,0,6,1,4,2,1,4,2020-10-21 18:07:20.945
2,4,2,1,4,1,2,0,6,1,1,6,1,2,2020-10-21 18:07:20.962
2,2,1,2,1,4,1,6,0,8,1,1,4,1,2,2020-10-21 18:07:20.978
1,6,1,2,0,8,1,6,1,0,8,0,8,1,2,2020-10-21 18:07:20.995
1,8,2,2,1,1,6,1,0,6,0,6,1,4,2020-10-21 18:07:21.011
1,6,2,2,0,8,1,4,1,4,0,4,0,4,1,4,2020-10-21 18:07:21.027
1,2,2,2,0,8,1,2,1,4,0,6,0,6,1,6,2020-10-21 18:07:21.044
1,2,2,4,1,0,8,1,4,0,6,0,4,1,4,2020-10-21 18:07:21.061
1,4,2,2,1,2,0,8,1,2,0,6,0,8,1,2,2020-10-21 18:07:21.078
2,2,8,0,8,0,8,1,6,0,6,0,8,1,4,2020-10-21 18:07:21.095
2,8,3,4,1,0,8,1,2,0,8,1,2,1,4,2020-10-21 18:07:21.111
2,6,3,1,2,1,6,1,4,0,8,1,4,1,4,2020-10-21 18:07:21.128
2,4,3,4,0,8,1,6,1,4,1,1,8,2,2020-10-21 18:07:21.145
2,2,4,0,6,1,4,2,1,1,4,1,8,2020-10-21 18:07:21.162
1,6,2,8,0,6,1,2,1,8,1,2,1,4,1,8,2020-10-21 18:07:21.179
1,2,2,2,0,4,1,2,1,8,1,1,2,2,2,2020-10-21 18:07:21.195
1,2,2,0,2,0,6,1,4,1,0,8,2,2020-10-21 18:07:21.211
2,2,3,0,4,0,8,1,6,1,0,4,1,4,2020-10-21 18:07:21.228
2,4,3,0,6,1,1,2,1,6,1,1,6,2020-10-21 18:07:21.244
2,2,3,6,1,1,0,8,1,4,1,6,1,4,2020-10-21 18:07:21.261
1,8,3,6,1,1,2,1,1,6,1,6,0,8,2020-10-21 18:07:21.278
2,3,8,1,4,1,2,1,1,6,1,8,0,6,2020-10-21 18:07:21.295
1,6,2,4,1,4,0,8,0,8,1,6,2,0,8,2020-10-21 18:07:21.311
1,6,2,6,1,6,0,8,0,6,1,2,0,6,2020-10-21 18:07:21.328
1,8,1,8,1,2,0,6,0,8,1,1,4,0,6,2020-10-21 18:07:21.345
2,2,2,4,1,6,0,4,0,8,1,1,6,0,8,2020-10-21 18:07:21.362
2,2,2,8,1,2,0,6,1,2,1,1,6,1,4,2020-10-21 18:07:21.378
2,6,3,2,1,4,0,8,1,2,0,6,1,6,1,8,2020-10-21 18:07:21.395
2,4,2,6,1,4,0,6,1,4,0,6,1,4,1,8,2020-10-21 18:07:21.411
2,2,3,4,1,6,0,8,1,2,0,8,1,4,1,8,2020-10-21 18:07:21.428
2,4,3,2,1,2,1,2,1,4,0,8,1,1,4,2020-10-21 18:07:21.444
3,2,3,2,1,2,0,8,1,2,0,8,0,8,1,2020-10-21 18:07:21.461
2,4,2,4,0,8,0,8,1,2,0,8,0,8,0,6,2020-10-21 18:07:21.478
2,6,2,4,0,8,1,1,0,6,0,4,1,2020-10-21 18:07:21.495
2,6,1,4,0,8,1,2,1,2,0,6,0,2,1,2020-10-21 18:07:21.512
2,4,1,2,1,1,2,0,8,0,6,0,2,1,4,2020-10-21 18:07:21.528
1,2,1,2,1,1,2,0,8,0,6,0,2,1,8,2020-10-21 18:07:21.545
1,4,1,8,1,6,1,4,1,4,0,8,0,2,2020-10-21 18:07:21.562
1,2,1,4,1,2,1,2,0,8,0,1,6,2020-10-21 18:07:21.579
1,2,8,1,4,1,2,1,2,0,8,0,1,8,2020-10-21 18:07:21.595
0,6,3,2,1,8,1,1,2,0,6,0,4,1,6,2020-10-21 18:07:21.612
0,8,3,2,1,8,1,2,1,2,0,4,0,8,1,2,2020-10-21 18:07:21.629
0,8,3,1,4,1,0,8,0,4,1,2,1,2020-10-21 18:07:21.645
1,8,4,6,1,6,1,4,1,2,1,1,2,1,2020-10-21 18:07:21.662
2,5,1,4,1,6,1,2,1,6,1,6,1,2,2020-10-21 18:07:21.679
2,8,5,2,1,1,6,1,4,1,8,1,4,1,2020-10-21 18:07:21.696
3,4,5,4,1,2,1,4,1,4,1,8,1,2,1,2020-10-21 18:07:21.712
3,4,5,4,1,2,1,4,1,4,1,8,1,0,8,2020-10-21 18:07:21.729
2,6,4,2,1,2,1,2,1,4,1,8,1,4,1,2020-10-21 18:07:21.745
2,8,3,4,1,4,1,1,4,1,1,0,6,2020-10-21 18:07:21.762
2,4,2,6,1,2,0,8,1,4,1,2,1,1,2020-10-21 18:07:21.779
2,4,2,4,1,1,2,1,6,1,2,0,8,1,2020-10-21 18:07:21.795
2,8,2,8,1,1,1,8,1,0,8,1,4,2020-10-21 18:07:21.812
3,2,2,6,1,2,0,8,1,4,1,0,6,1,6,2020-10-21 18:07:21.829
2,6,2,6,1,2,0,8,1,6,1,4,0,8,1,6,2020-10-21 18:07:21.845
2,4,3,2,1,2,1,1,6,1,0,6,1,4,2020-10-21 18:07:21.862
1,6,2,8,1,4,0,8,1,6,1,1,1,2,2020-10-21 18:07:21.879
0,8,2,4,1,2,0,8,1,2,1,2,1,0,8,2020-10-21 18:07:21.896
0,6,2,4,1,2,0,8,1,4,0,8,1,4,0,8,2020-10-21 18:07:21.912
0,6,2,2,1,2,0,6,1,2,0,6,1,4,1,2020-10-21 18:07:21.929
0,6,1,6,1,2,0,4,1,2,0,8,1,6,1,2020-10-21 18:07:21.945
1,8,3,4,0,8,0,4,1,2,0,8,1,4,1,2020-10-21 18:07:21.962
2,3,2,0,8,0,8,1,0,8,1,2,1,2,2020-10-21 18:07:21.979
1,8,3,0,2,1,0,8,0,6,0,6,0,8,2020-10-21 18:07:21.996
2,3,0,2,0,8,0,8,1,0,4,0,4,2020-10-21 18:07:22.013
2,2,3,2,0,8,1,2,1,1,4,0,6,0,2,2020-10-21 18:07:22.029
1,4,1,6,1,4,1,4,1,2,0,8,0,4,2020-10-21 18:07:22.046
1,4,1,4,1,6,1,4,1,4,2,4,0,8,0,6,2020-10-21 18:07:22.063
2,2,1,8,1,8,1,2,2,2,8,0,8,0,8,2020-10-21 18:07:22.080
2,4,1,6,2,5,6,2,4,2,4,1,1,2020-10-21 18:07:22.096
2,2,1,8,1,4,6,6,2,4,2,2,0,6,1,2,2020-10-21 18:07:22.113
2,2,8,1,7,2,2,0,6,1,6,2020-10-21 18:07:22.129
2,3,8,1,6,10,2,8,1,8,0,8,1,4,2020-10-21 18:07:22.146
1,2,3,6,1,6,14,3,2,1,8,0,8,1,6,2020-10-21 18:07:22.163
2,6,4,2,1,6,14,2,3,6,2,2,1,2,2020-10-21 18:07:22.179
2,8,4,2,1,6,13,3,4,1,8,1,2,4,2020-10-21 18:07:22.195
2,6,3,6,1,8,12,4,3,4,1,4,1,1,8,2020-10-21 18:07:22.212
2,8,3,1,9,4,2,8,1,4,0,8,1,8,2020-10-21 18:07:22.229
2,8,3,2,1,2,7,2,2,8,2,4,1,8,1,6,2020-10-21 18:07:22.245
1,2,3,1,8,4,6,2,8,2,6,1,6,1,2,2020-10-21 18:07:22.262
1,2,4,2,4,4,6,2,8,3,1,6,0,8,2020-10-21 18:07:22.279
1,4,3,8,2,4,4,4,2,8,3,4,1,2,1,2020-10-21 18:07:22.296
1,2,3,6,2,4,4,6,3,6,5,6,2,2,1,2020-10-21 18:07:22.312
1,2,2,8,2,4,4,4,3,2,5,4,1,4,0,8,2020-10-21 18:07:22.329
1,3,4,1,8,4,2,2,8,5,4,2,1,2020-10-21 18:07:22.345
0,8,1,8,1,8,5,4,3,6,4,2,1,2020-10-21 18:07:22.363
0,8,1,6,2,6,8,6,3,8,7,2,2,1,2020-10-21 18:07:22.380
0,6,1,8,3,6,10,8,4,4,5,4,1,4,1,2,2020-10-21 18:07:22.397
0,4,2,2,3,2,10,2,4,4,6,1,4,1,4,2020-10-21 18:07:22.413
0,6,1,8,3,11,8,4,8,3,8,0,6,1,2,2020-10-21 18:07:22.430
0,6,2,2,6,14,5,2,3,2,0,6,1,2,2020-10-21 18:07:22.446
1,2,2,6,1,8,13,2,6,4,4,4,0,8,1,2020-10-21 18:07:22.463
1,8,2,4,1,8,12,8,5,8,6,4,1,0,6,2020-10-21 18:07:22.480
2,2,2,8,16,4,6,6,6,4,1,0,4,2020-10-21 18:07:22.497
2,2,2,3,6,14,8,5,6,7,4,1,2,0,4,2020-10-21 18:07:22.513
2,2,2,3,8,14,6,5,6,8,1,4,0,4,2020-10-21 18:07:22.530
1,8,1,8,3,6,12,6,3,2,4,8,1,6,0,6,2020-10-21 18:07:22.546
1,2,3,6,2,6,11,6,2,6,2,1,0,6,2020-10-21 18:07:22.563
1,2,4,2,8,1,8,1,6,0,8,1,2020-10-21 18:07:22.580
1,2,3,6,1,4,6,4,1,6,1,2,1,1,4,2020-10-21 18:07:22.596
1,4,4,1,2,5,4,1,6,1,1,1,4,2020-10-21 18:07:22.613
1,2,4,4,1,4,5,8,1,6,0,8,0,8,1,2,2020-10-21 18:07:22.629
1,4,2,4,1,4,4,6,1,4,1,8,1,2,1,8,2020-10-21 18:07:22.645
1,4,3,2,1,4,4,4,1,6,2,1,2,1,6,2020-10-21 18:07:22.663
1,6,3,1,2,5,1,6,1,4,1,1,2020-10-21 18:07:22.680
2,2,3,1,2,2,8,1,8,2,1,0,8,2020-10-21 18:07:22.696
2,6,2,6,1,2,2,2,2,6,1,0,8,2020-10-21 18:07:22.713
2,8,4,1,4,2,2,1,6,1,6,1,0,4,2020-10-21 18:07:22.730
2,8,3,6,1,1,6,1,4,1,8,1,2,0,4,2020-10-21 18:07:22.746
2,4,4,1,1,2,1,4,2,1,6,0,8,2020-10-21 18:07:22.763
2,4,8,1,8,1,6,1,4,1,6,1,6,1,2,2020-10-21 18:07:22.780
1,4,5,8,2,2,1,8,2,8,3,1,6,1,8,2020-10-21 18:07:22.797
1,4,5,6,2,2,1,8,2,6,3,8,1,6,1,8,2020-10-21 18:07:22.813
2,5,4,2,6,1,8,2,8,4,6,1,8,2,2020-10-21 18:07:22.830
2,2,5,2,8,1,6,3,2,5,4,1,2,1,8,2020-10-21 18:07:22.846
2,2,5,2,2,1,2,2,8,7,1,2,2,2020-10-21 18:07:22.864
2,4,2,1,6,1,2,4,5,4,1,2,1,4,2020-10-21 18:07:22.880
2,4,2,1,6,1,6,2,8,4,6,1,2,1,2,2020-10-21 18:07:22.897
1,2,3,6,1,6,2,4,4,4,8,1,1,2020-10-21 18:07:22.914
1,4,2,1,4,2,8,4,8,5,6,1,1,2020-10-21 18:07:22.931
0,6,4,2,1,6,3,4,5,6,5,1,4,0,4,2020-10-21 18:07:22.947
0,6,4,1,8,4,5,6,1,8,0,8,2020-10-21 18:07:22.964
0,6,3,8,2,2,4,8,6,6,2,1,6,1,2020-10-21 18:07:22.980
0,6,4,8,1,8,4,4,8,6,4,1,8,1,2,2020-10-21 18:07:22.997
1,6,4,6,2,3,4,3,4,4,8,2,1,2,2020-10-21 18:07:23.014
1,6,2,8,2,2,3,6,3,4,4,2,1,4,1,4,2020-10-21 18:07:23.030
1,6,2,8,2,8,2,8,3,6,4,4,1,2,1,4,2020-10-21 18:07:23.046
1,4,2,4,2,4,1,8,2,8,4,4,1,4,1,4,2020-10-21 18:07:23.063
2,2,1,8,2,6,2,2,4,3,2,1,2,1,2020-10-21 18:07:23.080
1,6,2,2,4,2,2,3,2,5,4,1,2,0,8,2020-10-21 18:07:23.097
1,8,2,8,2,2,1,6,2,6,5,2,1,2,0,8,2020-10-21 18:07:23.113
2,2,4,4,1,2,1,8,2,4,4,6,1,0,8,2020-10-21 18:07:23.130
2,4,4,8,1,2,1,4,2,2,4,8,0,8,1,2020-10-21 18:07:23.146
2,4,8,1,2,1,4,3,2,6,4,1,6,1,2,2020-10-21 18:07:23.164
2,2,4,6,1,1,2,2,6,4,1,8,1,4,2020-10-21 18:07:23.180
2,4,3,8,0,6,1,8,3,2,4,2,1,4,2020-10-21 18:07:23.197
2,2,4,0,8,3,4,3,8,4,4,2,6,1,4,2020-10-21 18:07:23.213
2,2,4,0,6,3,2,4,8,3,2,1,2,2020-10-21 18:07:23.230
2,2,2,0,6,3,4,5,9,2,3,1,2,2020-10-21 18:07:23.246
2,1,8,1,3,6,5,4,10,8,3,4,1,6,2020-10-21 18:07:23.263
2,4,2,4,1,2,4,2,4,6,10,8,3,4,1,8,2020-10-21 18:07:23.280
3,2,6,1,2,4,3,2,9,6,2,8,1,6,2020-10-21 18:07:23.297
2,8,2,2,1,6,5,4,6,4,5,8,2,6,1,8,2020-10-21 18:07:23.314
2,8,3,8,1,6,5,2,5,2,8,2,8,2,2,2020-10-21 18:07:23.331
2,4,3,8,1,6,5,2,7,2,6,4,2,6,2,6,2020-10-21 18:07:23.347
1,8,3,2,1,8,5,7,4,8,6,2,4,2,8,2020-10-21 18:07:23.364
1,2,2,6,1,8,4,11,2,9,2,2,6,3,2020-10-21 18:07:23.381
1,4,3,1,8,3,6,12,6,15,8,2,6,2,6,2020-10-21 18:07:23.397
0,8,1,6,1,6,3,8,14,6,18,8,2,2,2,2020-10-21 18:07:23.414
1,4,1,8,1,6,4,12,8,14,2,1,4,1,4,2020-10-21 18:07:23.431
1,4,2,4,1,8,2,8,14,2,12,4,2,6,1,6,2020-10-21 18:07:23.447
2,3,2,4,5,22,2,24,4,5,8,1,6,2020-10-21 18:07:23.464
1,8,2,4,2,4,5,21,2,22,7,2,1,8,2020-10-21 18:07:23.481
2,4,2,8,3,4,5,6,21,2,22,8,2,2020-10-21 18:07:23.498
2,2,2,6,3,2,5,8,21,6,22,4,8,8,2,6,2020-10-21 18:07:23.514
2,4,2,8,2,8,5,8,21,6,25,2,8,2,2020-10-21 18:07:23.531
2,3,2,2,3,2,11,4,15,8,4,8,1,6,2020-10-21 18:07:23.547
3,4,2,2,2,2,4,9,2,13,2,3,2,1,4,2020-10-21 18:07:23.564
2,4,4,4,1,6,1,8,10,2,16,8,4,1,2,2020-10-21 18:07:23.581
2,2,4,2,1,6,1,2,9,4,16,4,3,6,0,8,2020-10-21 18:07:23.597
1,8,4,6,1,4,1,8,11,6,18,6,4,4,1,2020-10-21 18:07:23.614
1,6,4,2,1,4,2,4,15,4,23,5,8,1,2020-10-21 18:07:23.631
0,8,2,8,1,2,2,2,14,21,6,6,1,2020-10-21 18:07:23.647
1,2,3,4,1,4,1,8,13,18,2,4,2,1,4,2020-10-21 18:07:23.664
1,2,4,6,1,6,2,4,17,2,23,8,5,2,1,2,2020-10-21 18:07:23.681
1,8,4,2,1,6,13,6,18,4,4,2,1,4,2020-10-21 18:07:23.698
2,4,4,2,4,2,6,16,4,19,4,3,8,1,8,2020-10-21 18:07:23.715
2,5,2,6,4,4,24,28,4,6,1,8,2020-10-21 18:07:23.731
2,6,5,2,6,4,8,22,29,8,4,8,1,4,2020-10-21 18:07:23.747
2,6,4,2,4,4,4,18,4,26,6,4,1,6,2020-10-21 18:07:23.765
2,6,4,2,6,5,2,20,6,30,6,1,6,2020-10-21 18:07:23.781
2,8,4,4,2,4,4,8,13,6,25,4,5,2,1,2,2020-10-21 18:07:23.798
3,6,6,6,1,8,3,4,6,2,17,8,4,1,6,2020-10-21 18:07:23.814
3,4,7,2,1,8,3,2,6,2,13,2,4,4,1,8,2020-10-21 18:07:23.831
3,4,7,2,6,4,8,8,16,2,5,2,1,4,2020-10-21 18:07:23.847
3,2,6,8,1,8,6,4,7,13,8,3,2,1,2020-10-21 18:07:23.864
2,6,6,1,8,5,6,9,6,2,6,1,4,2020-10-21 18:07:23.881
2,4,4,2,2,4,8,7,6,9,4,3,4,1,4,2020-10-21 18:07:23.898
1,4,2,4,2,5,2,7,6,8,8,2,8,1,2,2020-10-21 18:07:23.915
1,8,2,8,2,2,2,5,4,3,2,2,2,2020-10-21 18:07:23.931
1,6,2,4,2,2,2,6,6,4,2,4,3,2020-10-21 18:07:23.948
2,2,8,1,6,2,4,6,4,4,4,2,4,3,2,2020-10-21 18:07:23.965
1,6,1,6,1,4,2,6,4,6,6,2,2,4,3,2,2020-10-21 18:07:23.981
1,8,2,8,1,4,2,2,4,6,7,2,3,2,3,8,2020-10-21 18:07:23.998
1,6,3,4,1,4,2,2,3,6,7,8,3,6,4,2,2020-10-21 18:07:24.015
2,4,8,2,2,2,8,7,3,2,3,6,2020-10-21 18:07:24.032
2,8,7,6,2,3,2,4,2,7,8,5,2,4,2020-10-21 18:07:24.048
4,2,10,6,8,2,3,2,4,2,5,8,5,3,8,2020-10-21 18:07:24.064
4,6,10,8,8,6,3,4,4,4,6,2,5,8,3,4,2020-10-21 18:07:24.081
5,4,23,6,13,4,4,4,5,6,5,2,4,2020-10-21 18:07:24.098
6,4,27,14,8,3,6,3,8,5,5,6,2,4,2020-10-21 18:07:24.115
7,27,6,12,6,2,4,2,6,3,8,3,6,1,6,2020-10-21 18:07:24.132
6,26,8,12,2,6,2,8,3,6,9,2,2,2,2020-10-21 18:07:24.148
5,8,25,6,11,6,2,4,3,2,2,4,9,8,2,6,2020-10-21 18:07:24.165
4,8,12,6,8,5,8,3,4,3,2,10,4,2,6,2020-10-21 18:07:24.182
3,8,8,8,5,4,10,8,5,6,4,4,10,8,2,2,2020-10-21 18:07:24.198
2,5,6,3,6,10,8,6,4,2,11,6,2,4,2020-10-21 18:07:24.215
2,2,3,2,2,11,6,9,9,2,6,6,1,6,2020-10-21 18:07:24.232
1,6,3,4,1,6,11,6,8,8,10,6,4,4,1,2020-10-21 18:07:24.248
1,6,3,4,1,4,7,2,9,10,6,4,4,1,2,2020-10-21 18:07:24.265
1,8,2,0,6,2,8,6,6,8,6,3,8,1,2020-10-21 18:07:24.282
2,8,1,8,0,8,3,2,6,2,8,8,3,0,6,2020-10-21 18:07:24.299
3,2,6,1,2,2,2,4,3,4,2,1,2020-10-21 18:07:24.315
3,2,8,1,8,2,2,2,3,2,2,1,2020-10-21 18:07:24.332
3,6,2,8,1,8,2,4,1,4,1,8,1,4,0,6,2020-10-21 18:07:24.348
3,6,3,6,2,1,6,0,8,1,8,0,8,1,2020-10-21 18:07:24.364
2,8,3,4,2,1,4,1,2,2,1,2,1,2020-10-21 18:07:24.381
2,2,3,2,2,1,2,1,6,1,6,0,8,1,2,2020-10-21 18:07:24.398
3,2,3,2,1,2,0,8,1,2,0,4,0,8,2,8,2020-10-21 18:07:24.415
2,4,3,2,1,2,1,2,1,2,0,8,1,2,5,4,2020-10-21 18:07:24.432
2,8,3,4,1,2,1,4,1,4,1,4,1,6,5,8,2020-10-21 18:07:24.448
3,2,4,6,1,2,1,1,2,1,4,1,4,9,2020-10-21 18:07:24.464
3,4,2,1,4,1,2,1,2,1,6,1,6,9,2020-10-21 18:07:24.482
2,6,4,4,2,1,4,1,4,2,1,6,10,4,2020-10-21 18:07:24.499
3,6,4,4,2,6,0,8,1,6,1,6,1,6,10,8,2020-10-21 18:07:24.515
4,10,6,3,6,1,6,2,6,2,2,2,15,6,2020-10-21 18:07:24.532
5,6,11,8,7,8,3,4,3,4,3,3,4,13,2,2020-10-21 18:07:24.549
8,2,25,8,12,8,4,6,4,2,4,4,4,4,13,8,2020-10-21 18:07:24.565
12,6,25,8,18,2,6,2,5,5,6,6,4,12,2020-10-21 18:07:24.582
12,4,37,6,18,2,6,8,6,6,6,6,8,9,2,2020-10-21 18:07:24.599
15,4,41,2,23,8,7,5,6,7,4,4,4,2020-10-21 18:07:24.616
14,2,41,19,4,5,4,4,6,9,10,6,7,2020-10-21 18:07:24.632
18,6,39,4,21,6,9,7,6,15,8,20,11,8,2020-10-21 18:07:24.649
17,46,16,10,6,9,18,18,2,11,2,2020-10-21 18:07:24.665
19,37,20,11,11,8,19,6,24,15,2020-10-21 18:07:24.682
17,4,28,8,18,11,6,11,8,21,27,6,17,2020-10-21 18:07:24.699
16,6,27,2,24,6,12,6,12,4,17,6,23,16,6,2020-10-21 18:07:24.715
9,4,19,18,6,7,6,8,8,9,6,13,11,2020-10-21 18:07:24.732
9,6,14,2,39,6,8,6,7,6,9,8,14,4,11,6,2020-10-21 18:07:24.748
8,8,13,6,41,6,8,2,4,4,13,2,21,4,9,6,2020-10-21 18:07:24.765
6,15,39,4,6,8,4,6,12,4,16,8,7,2,2020-10-21 18:07:24.782
7,8,16,8,41,4,8,4,6,6,14,6,27,2,6,2020-10-21 18:07:24.798
13,6,16,8,45,4,11,4,11,8,18,2,28,4,6,4,2020-10-21 18:07:24.815
10,4,16,8,26,8,7,8,10,4,15,27,8,7,2020-10-21 18:07:24.832
10,2,14,4,23,4,8,4,10,8,9,4,14,6,6,6,2020-10-21 18:07:24.849
10,8,10,6,23,9,8,12,8,8,8,14,2,7,4,2020-10-21 18:07:24.865
14,8,13,16,4,11,4,9,8,7,6,5,6,7,2,2020-10-21 18:07:24.882
12,6,18,4,18,8,6,4,4,3,8,6,6,6,8,2020-10-21 18:07:24.899
13,6,16,2,17,9,2,6,8,5,8,6,6,5,6,2020-10-21 18:07:24.916
12,6,19,6,14,6,13,8,7,6,7,7,4,4,2,2020-10-21 18:07:24.932
12,20,4,18,2,12,6,9,2,11,8,10,4,4,2,2020-10-21 18:07:24.949
9,4,16,8,24,2,11,4,11,4,11,4,9,2,3,2020-10-21 18:07:24.965
10,11,2,26,2,11,8,12,2,12,4,7,4,3,8,2020-10-21 18:07:24.983
9,8,11,6,24,4,10,8,11,2,12,6,8,3,4,2020-10-21 18:07:24.999
9,8,10,26,2,9,8,10,13,2,8,6,3,4,2020-10-21 18:07:25.016
10,4,11,6,23,6,12,4,7,6,8,8,6,4,2,4,2020-10-21 18:07:25.033
8,11,6,17,2,12,8,5,2,7,8,5,8,4,2,2020-10-21 18:07:25.050
4,7,4,9,12,8,8,8,9,4,7,4,2020-10-21 18:07:25.066
3,8,6,12,4,16,2,8,2,6,6,5,2,3,8,2020-10-21 18:07:25.083
2,2,7,8,13,6,16,2,11,5,2,5,4,2020-10-21 18:07:25.099
1,8,6,12,16,6,10,8,5,8,5,2,6,8,2020-10-21 18:07:25.115
2,6,8,10,4,15,4,14,7,8,5,8,6,2020-10-21 18:07:25.132
2,7,8,13,4,35,17,15,4,5,2,5,4,2020-10-21 18:07:25.149
5,12,6,13,6,43,20,4,22,2,7,2,5,4,2020-10-21 18:07:25.165
8,4,14,2,10,2,45,2,21,4,34,7,8,5,4,2020-10-21 18:07:25.182
14,20,4,9,6,54,4,23,6,33,6,8,3,2020-10-21 18:07:25.199
18,25,10,53,6,31,41,4,9,2,2,2020-10-21 18:07:25.216
19,6,30,2,11,6,45,6,41,6,43,4,14,4,6,2020-10-21 18:07:25.232
20,6,26,4,11,8,34,2,42,6,37,6,12,6,5,4,2020-10-21 18:07:25.249
19,6,25,8,15,37,6,41,6,25,8,11,4,5,4,2020-10-21 18:07:25.265
17,2,22,20,29,2,39,6,25,8,12,5,2020-10-21 18:07:25.283
13,8,23,6,26,8,31,2,33,4,20,10,2,4,8,2020-10-21 18:07:25.300
13,4,18,4,22,20,6,18,8,8,4,2,8,2020-10-21 18:07:25.316
10,6,20,4,24,35,14,4,12,2,4,2,8,2020-10-21 18:07:25.333
15,2,28,2,26,2,50,2,20,6,20,2,7,2,4,2020-10-21 18:07:25.350
16,34,4,25,8,60,27,30,4,7,2,2,2,2020-10-21 18:07:25.366
14,8,26,6,23,8,64,6,28,2,26,8,2,4,2020-10-21 18:07:25.383
15,2,27,8,25,6,68,34,6,32,8,2,2,2020-10-21 18:07:25.400
15,6,27,20,6,69,41,6,32,4,8,2,2,2020-10-21 18:07:25.417
11,8,20,6,16,4,51,4,39,2,24,4,5,3,2020-10-21 18:07:25.433
10,4,11,6,13,8,52,8,43,29,8,8,8,3,8,2020-10-21 18:07:25.450
12,4,15,6,8,8,51,6,42,8,37,2,9,6,3,2,2020-10-21 18:07:25.466
12,6,16,4,7,4,49,4,33,2,33,8,10,4,2,2020-10-21 18:07:25.483
11,8,14,4,9,8,41,4,29,8,28,4,12,4,6,4,2020-10-21 18:07:25.499
15,6,19,2,12,2,45,8,23,29,4,11,6,5,6,2020-10-21 18:07:25.516
12,6,21,10,30,8,18,6,25,8,9,8,4,8,2020-10-21 18:07:25.533
15,4,26,2,12,6,35,21,8,22,2,7,6,5,6,2020-10-21 18:07:25.550
14,4,22,6,12,8,41,22,8,22,7,4,6,2020-10-21 18:07:25.566
15,6,23,2,10,2,37,2,19,4,29,4,2,4,2020-10-21 18:07:25.583
9,6,15,6,6,36,8,21,6,28,8,5,4,3,2020-10-21 18:07:25.600
16,8,21,8,4,41,6,22,6,21,8,5,4,3,4,2020-10-21 18:07:25.617
12,8,13,6,4,35,14,19,6,5,8,3,2020-10-21 18:07:25.633
14,17,6,6,4,34,26,2,30,4,8,2,2,8,2020-10-21 18:07:25.650
13,6,17,4,8,6,47,4,25,4,26,6,8,4,2,4,2020-10-21 18:07:25.666
13,17,8,9,8,48,8,31,8,34,2,10,2,2,2,2020-10-21 18:07:25.683
8,4,13,11,2,53,27,8,30,8,7,8,2,4,2020-10-21 18:07:25.700
7,6,12,8,11,51,6,29,31,7,4,2,2020-10-21 18:07:25.716
7,6,10,8,13,56,6,23,4,24,2,5,2,1,6,2020-10-21 18:07:25.733
8,11,2,12,49,30,4,31,4,4,8,2,2,2020-10-21 18:07:25.750
8,2,12,8,10,6,43,24,27,4,1,4,2,2,2020-10-21 18:07:25.766
7,10,2,9,4,48,8,22,6,27,6,1,8,2,2020-10-21 18:07:25.783
7,9,4,10,49,6,29,2,37,3,2,2,8,2020-10-21 18:07:25.800
8,13,6,9,43,6,29,37,3,6,4,6,2020-10-21 18:07:25.817
7,8,13,8,12,55,2,25,8,28,4,3,6,2020-10-21 18:07:25.834
10,4,17,6,13,4,52,2,32,4,29,6,6,3,4,2020-10-21 18:07:25.850
12,2,20,4,13,8,49,31,2,28,2,7,2,3,4,2020-10-21 18:07:25.866
13,20,4,13,2,47,2,23,4,21,2,6,3,2,2020-10-21 18:07:25.884
11,8,16,4,13,2,44,6,18,4,18,6,1,6,2020-10-21 18:07:25.900
10,6,15,2,8,6,23,8,17,17,6,6,4,2,2,2020-10-21 18:07:25.917
10,6,13,8,7,2,23,4,13,4,18,4,7,2,2,2020-10-21 18:07:25.934
11,12,4,8,18,2,11,6,24,6,6,1,8,2020-10-21 18:07:25.950
11,2,16,5,2,23,6,21,4,34,2,7,2,2,2020-10-21 18:07:25.967
10,6,16,8,3,2,19,2,20,35,4,7,6,2,6,2020-10-21 18:07:25.983
11,4,18,2,5,4,42,2,23,6,39,7,2,2020-10-21 18:07:26.000
10,6,18,6,8,50,6,21,8,35,6,4,6,2,4,2020-10-21 18:07:26.016
9,8,20,8,4,46,4,27,6,32,4,4,6,2,4,2020-10-21 18:07:26.033
8,8,16,7,6,42,4,19,2,17,6,3,6,1,8,2020-10-21 18:07:26.050
9,8,16,2,8,2,46,6,20,4,15,4,3,4,1,2,2020-10-21 18:07:26.066
12,8,18,6,7,4,26,4,22,20,4,6,2,2,2020-10-21 18:07:26.083
12,6,13,8,4,4,15,22,19,2,6,6,2,2020-10-21 18:07:26.100
13,8,17,2,4,6,21,8,16,4,19,8,6,4,2020-10-21 18:07:26.117
14,2,16,6,7,2,30,8,27,8,23,4,6,8,5,2020-10-21 18:07:26.133
14,6,19,10,47,6,28,8,22,6,6,7,2,2020-10-21 18:07:26.150
10,2,13,4,8,8,50,8,28,4,19,2,4,6,7,8,2020-10-21 18:07:26.166
8,2,13,4,9,2,56,4,31,8,23,4,4,8,9,2020-10-21 18:07:26.184
9,11,8,9,4,48,4,32,8,22,4,2,7,4,2020-10-21 18:07:26.200
12,17,6,8,8,37,4,23,8,27,6,4,2,6,4,2020-10-21 18:07:26.217
9,2,13,6,8,2,25,6,20,8,27,8,3,8,4,8,2020-10-21 18:07:26.234
9,2,17,2,10,8,26,2,14,4,22,2,3,3,8,2020-10-21 18:07:26.251
14,2,28,4,17,38,6,15,2,19,4,2,6,3,8,2020-10-21 18:07:26.267
15,8,33,2,19,4,47,6,22,2,23,2,4,2,3,4,2020-10-21 18:07:26.284
13,6,29,17,2,55,6,26,4,14,4,4,4,8,2020-10-21 18:07:26.301
14,27,6,17,51,2,31,20,6,4,8,5,6,2020-10-21 18:07:26.318
18,8,32,4,14,8,47,32,8,19,8,5,4,5,8,2020-10-21 18:07:26.334
15,2,22,6,9,8,32,8,28,8,19,2,6,4,4,4,2020-10-21 18:07:26.350
10,6,14,7,8,24,4,21,15,4,4,8,4,4,2020-10-21 18:07:26.366
15,8,19,8,10,4,22,2,13,2,18,6,4,2,3,8,2020-10-21 18:07:26.384
17,8,21,2,9,4,31,4,9,4,13,8,4,6,2,6,2020-10-21 18:07:26.400
12,8,13,2,8,6,30,4,8,6,16,6,5,4,3,2020-10-21 18:07:26.417
15,8,17,10,8,40,2,16,4,23,6,2,4,4,2020-10-21 18:07:26.434
15,17,10,4,44,8,19,8,22,4,7,2,5,4,2020-10-21 18:07:26.450
10,2,13,8,8,6,37,4,27,6,30,2,8,5,2,2020-10-21 18:07:26.467
7,8,12,2,9,6,26,6,33,8,27,4,7,8,5,2020-10-21 18:07:26.484
13,8,19,8,12,8,31,4,35,8,31,2,6,6,4,2,2020-10-21 18:07:26.501
10,6,16,2,9,19,8,24,2,23,4,4,2,3,2020-10-21 18:07:26.517
13,6,21,2,8,4,16,4,24,26,4,2,3,2020-10-21 18:07:26.534
14,4,22,2,12,2,16,4,18,2,20,4,3,6,3,4,2020-10-21 18:07:26.551
14,6,22,6,9,4,14,2,13,26,2,6,3,6,2020-10-21 18:07:26.567
9,8,18,4,8,9,9,8,20,6,3,2,3,6,2020-10-21 18:07:26.584
10,8,18,6,8,6,8,10,6,18,6,3,6,3,6,2020-10-21 18:07:26.601
8,6,14,6,7,4,6,6,7,6,14,8,3,2,3,2,2020-10-21 18:07:26.618
6,8,10,2,2,6,8,4,5,6,14,6,2,2,2,2,2020-10-21 18:07:26.635
7,6,10,2,4,4,7,8,5,4,17,6,4,2,2,2020-10-21 18:07:26.651
7,6,7,6,2,8,10,2,9,19,8,5,6,2,4,2020-10-21 18:07:26.667
6,4,6,6,4,8,19,12,6,24,6,8,2,4,2020-10-21 18:07:26.685
8,2,8,4,6,21,2,14,6,24,6,2,2,4,2020-10-21 18:07:26.701
7,8,7,6,5,25,8,16,8,20,6,6,2,2,8,2020-10-21 18:07:26.718
9,8,10,2,4,6,31,8,15,13,4,4,3,2,2020-10-21 18:07:26.734
9,10,5,28,8,12,6,12,2,2,2,8,2020-10-21 18:07:26.750
9,10,4,3,4,31,4,11,2,12,6,1,2,3,8,2020-10-21 18:07:26.767
6,8,9,2,3,6,27,8,14,26,6,4,2,4,4,2020-10-21 18:07:26.784
7,4,9,4,4,2,23,4,12,6,26,4,4,4,5,4,2020-10-21 18:07:26.801
7,2,7,6,6,32,20,6,29,2,5,6,5,2020-10-21 18:07:26.817
8,4,10,2,7,6,36,4,26,6,32,8,6,5,6,2020-10-21 18:07:26.834
7,4,8,8,9,8,32,2,28,8,35,2,6,8,4,2,2020-10-21 18:07:26.851
6,2,6,4,10,4,38,29,2,27,4,4,6,3,8,2020-10-21 18:07:26.867
7,4,9,10,2,45,2,30,26,2,5,2,2,6,2020-10-21 18:07:26.884
7,2,10,4,7,6,39,4,23,4,22,6,4,6,4,6,2020-10-21 18:07:26.901
7,2,7,6,7,46,4,18,19,5,2,4,2020-10-21 18:07:26.918
11,2,10,2,4,8,44,14,18,8,4,4,4,2020-10-21 18:07:26.935
11,4,10,4,4,4,36,4,17,2,25,2,6,2,3,8,2020-10-21 18:07:26.951
9,8,9,4,2,31,2,17,8,25,6,5,6,4,2,2020-10-21 18:07:26.967
8,2,7,8,3,8,24,16,4,25,6,5,2,3,2020-10-21 18:07:26.985
12,12,8,3,13,6,21,2,30,6,6,3,2020-10-21 18:07:27.001
11,4,15,6,3,2,8,2,20,2,25,4,7,3,4,2020-10-21 18:07:27.018
12,15,6,2,6,15,8,15,8,17,4,6,4,2020-10-21 18:07:27.035
12,2,14,8,2,13,8,16,2,19,2,5,8,3,4,2020-10-21 18:07:27.052
12,2,13,2,2,4,16,4,15,6,19,8,5,6,3,2020-10-21 18:07:27.068
8,2,8,4,2,6,17,2,8,2,13,6,3,2,3,2020-10-21 18:07:27.085
5,6,3,4,4,6,20,8,13,4,13,4,2,8,4,2020-10-21 18:07:27.101
7,2,8,2,6,8,30,8,15,4,11,8,2,2,4,2,2020-10-21 18:07:27.117
7,6,10,7,8,34,4,16,14,2,3,6,6,2020-10-21 18:07:27.134
7,10,4,7,6,32,4,18,13,4,5,5,8,2020-10-21 18:07:27.151
8,4,12,2,8,6,33,4,20,8,15,4,8,5,8,2020-10-21 18:07:27.167
9,2,11,8,7,37,20,15,5,2,5,8,2020-10-21 18:07:27.185
8,4,10,5,2,23,6,13,8,13,6,4,4,5,2,2020-10-21 18:07:27.201
7,6,9,2,6,2,22,6,11,16,4,5,4,3,4,2020-10-21 18:07:27.218
14,2,16,4,8,4,28,4,15,8,24,4,4,2,4,6,2020-10-21 18:07:27.235
15,15,4,8,6,29,8,21,4,32,4,8,4,4,8,2020-10-21 18:07:27.251
22,4,24,6,9,2,23,4,18,2,32,4,7,6,3,4,2020-10-21 18:07:27.268
21,8,23,2,9,8,29,4,22,4,34,2,8,8,3,2,2020-10-21 18:07:27.285
21,4,21,2,8,2,30,25,2,26,4,7,2,4,4,2020-10-21 18:07:27.302
16,14,7,25,2,25,2,32,8,10,6,3,2,2020-10-21 18:07:27.318
15,2,14,6,7,8,28,6,19,2,23,2,6,8,3,2,2020-10-21 18:07:27.335
7,2,8,6,8,36,6,21,2,28,4,10,3,4,2020-10-21 18:07:27.351
10,2,8,6,7,33,4,19,2,28,6,8,6,3,2020-10-21 18:07:27.368
10,2,10,2,8,8,35,6,23,2,31,8,6,2,2,2020-10-21 18:07:27.384
9,9,4,9,47,2,22,16,8,5,6,2,4,2020-10-21 18:07:27.401
7,2,7,4,8,41,6,20,4,24,8,7,4,2,4,2020-10-21 18:07:27.418
7,5,7,6,37,4,20,19,2,4,8,3,8,2020-10-21 18:07:27.435
3,2,3,8,9,4,37,2,25,4,20,6,6,4,4,2020-10-21 18:07:27.452
4,2,3,9,4,31,18,8,18,8,6,4,6,2020-10-21 18:07:27.469
5,3,4,12,6,24,4,17,6,20,5,6,5,8,2020-10-21 18:07:27.485
13,15,8,15,2,45,4,19,6,14,5,5,6,2020-10-21 18:07:27.502
19,4,27,16,8,44,2,16,6,12,8,4,6,9,8,2020-10-21 18:07:27.519
19,2,32,2,20,4,38,4,11,8,6,5,4,11,4,2020-10-21 18:07:27.535
20,6,32,6,22,2,43,2,15,4,11,4,5,8,13,4,2020-10-21 18:07:27.552
25,8,36,18,4,52,2,18,6,16,4,5,6,15,2020-10-21 18:07:27.569
17,2,26,4,24,2,39,4,20,4,18,4,6,6,16,4,2020-10-21 18:07:27.585
19,8,30,31,38,2,20,2,17,6,6,8,11,2,2020-10-21 18:07:27.602
20,26,4,25,6,40,19,2,18,6,5,6,11,2020-10-21 18:07:27.619
34,2,46,8,45,6,40,6,17,4,17,8,7,8,8,6,2020-10-21 18:07:27.636
39,6,61,8,58,8,28,2,13,6,12,6,8,4,8,2020-10-21 18:07:27.652
45,6,72,4,60,2,18,8,9,2,9,2,5,8,8,2020-10-21 18:07:27.669
42,65,6,58,4,20,4,11,4,10,2,5,8,9,2020-10-21 18:07:27.685
43,71,8,70,20,8,10,8,9,4,4,8,7,8,2020-10-21 18:07:27.702
27,51,6,47,8,14,6,8,4,9,2,3,6,12,6,2020-10-21 18:07:27.719
22,47,2,42,2,13,5,4,10,4,2,11,2,2020-10-21 18:07:27.736
16,6,37,8,31,2,18,11,11,4,6,10,6,2020-10-21 18:07:27.752
16,6,43,4,35,4,15,10,14,4,6,10,4,2020-10-21 18:07:27.769
21,6,47,8,41,2,18,4,10,6,14,2,5,6,9,4,2020-10-21 18:07:27.785
24,4,54,2,46,31,2,13,4,12,6,5,2,7,4,2020-10-21 18:07:27.802
18,45,39,29,6,16,2,19,6,4,6,2,2020-10-21 18:07:27.820
24,49,8,49,27,4,16,18,7,4,5,4,2020-10-21 18:07:27.836
22,8,47,8,51,8,30,18,8,17,9,2,5,2020-10-21 18:07:27.852
17,4,39,47,2,31,4,22,2,17,6,9,2,5,2,2020-10-21 18:07:27.868
15,6,35,42,23,19,8,19,2,8,6,3,2020-10-21 18:07:27.885
16,34,6,43,2,21,4,17,6,12,7,4,3,2,2020-10-21 18:07:27.903
15,2,38,8,47,6,19,16,2,14,8,6,3,6,2020-10-21 18:07:27.918
11,8,31,2,36,6,19,13,4,14,3,8,4,2,2020-10-21 18:07:27.935
12,2,29,2,26,6,18,4,11,6,13,6,2,6,5,2020-10-21 18:07:27.952
11,29,6,28,2,16,13,8,16,4,3,4,4,2020-10-21 18:07:27.969
10,8,27,26,17,6,13,4,15,8,2,6,4,8,2020-10-21 18:07:27.985
6,8,14,6,15,8,20,10,6,16,8,4,4,5,4,2020-10-21 18:07:28.003
6,8,12,8,16,4,18,8,13,8,22,4,5,4,4,4,2020-10-21 18:07:28.019
6,12,19,4,13,11,6,22,5,8,4,2020-10-21 18:07:28.036
5,8,11,4,20,2,11,9,6,19,6,5,6,4,2,2020-10-21 18:07:28.052
6,2,13,4,21,10,6,8,8,18,6,5,6,4,2020-10-21 18:07:28.069
4,4,13,8,20,4,8,9,8,16,4,4,3,2,2020-10-21 18:07:28.085
4,4,15,21,2,7,6,6,2,10,3,8,2,6,2020-10-21 18:07:28.103
5,17,6,19,8,6,4,12,2,22,6,7,4,3,2020-10-21 18:07:28.119
6,18,4,16,4,8,6,11,2,21,8,7,2,3,2,2020-10-21 18:07:28.135
5,6,15,2,19,6,13,6,12,2,22,2,7,4,3,4,2020-10-21 18:07:28.152
6,8,19,4,20,4,13,2,11,6,20,2,7,6,3,2,2020-10-21 18:07:28.169
5,8,15,8,17,6,14,4,11,19,6,7,4,8,2020-10-21 18:07:28.185
6,2,14,4,20,8,16,4,4,2,10,2,4,2,5,2020-10-21 18:07:28.202
6,11,23,2,14,2,3,8,8,6,3,8,5,4,2020-10-21 18:07:28.219
5,8,11,2,23,6,10,8,3,10,3,8,5,2020-10-21 18:07:28.236
6,6,10,8,20,4,17,2,7,6,19,4,4,4,5,4,2020-10-21 18:07:28.253
8,2,12,6,25,16,6,10,2,26,2,6,6,4,2020-10-21 18:07:28.269
7,13,4,18,4,15,2,10,8,24,6,5,2,2,6,2020-10-21 18:07:28.286
8,19,6,20,8,15,2,16,33,6,8,2,2,2,2020-10-21 18:07:28.303
9,4,20,6,17,2,16,15,6,35,2,8,6,2,2020-10-21 18:07:28.319
7,2,22,4,15,8,10,6,12,26,8,8,1,8,2020-10-21 18:07:28.336
5,8,22,2,17,8,8,8,9,2,19,4,5,6,3,2020-10-21 18:07:28.353
6,2,19,2,17,8,10,9,4,17,2,6,4,3,8,2020-10-21 18:07:28.369
4,2,13,6,38,2,13,8,5,2,7,3,3,8,2020-10-21 18:07:28.385
2,6,13,2,51,6,15,7,4,2,4,2020-10-21 18:07:28.402
3,4,7,6,62,8,13,5,2,1,6,1,8,3,6,2020-10-21 18:07:28.419
2,8,6,53,8,14,2,6,4,3,4,2,6,2,2,2020-10-21 18:07:28.436
3,2,10,4,56,19,2,7,4,6,4,3,1,6,2020-10-21 18:07:28.452
4,11,2,34,16,7,2,8,3,8,2,2,2020-10-21 18:07:28.469
4,10,2,21,11,8,4,13,2,4,2,1,8,2020-10-21 18:07:28.485
5,14,4,10,8,16,6,8,8,19,4,4,4,2,2,2020-10-21 18:07:28.503
5,8,15,6,15,4,21,2,11,6,18,4,2,2,6,2020-10-21 18:07:28.519
4,6,11,8,12,2,15,12,4,19,4,3,4,3,4,2020-10-21 18:07:28.536
4,4,10,4,13,6,16,4,11,6,18,4,2,6,3,8,2020-10-21 18:07:28.553
5,12,4,14,6,17,6,9,2,13,4,2,2,4,8,2020-10-21 18:07:28.569
3,4,8,14,4,12,8,9,6,9,8,3,4,8,2020-10-21 18:07:28.586
2,8,6,6,13,8,8,5,8,10,8,2,6,5,6,2020-10-21 18:07:28.603
5,8,17,2,9,4,4,7,2,2,6,6,2020-10-21 18:07:28.620
4,6,7,2,17,7,6,3,6,6,6,2,8,5,2,2020-10-21 18:07:28.636
4,8,4,6,16,8,6,5,7,4,3,8,4,2020-10-21 18:07:28.653
4,8,3,8,21,6,7,6,4,2,7,6,4,4,4,6,2020-10-21 18:07:28.670
6,4,6,4,24,4,10,4,6,8,5,2,3,6,2020-10-21 18:07:28.686
6,8,9,2,24,10,4,4,8,10,4,7,6,3,4,2020-10-21 18:07:28.703
7,9,23,6,16,8,9,8,13,4,7,4,3,6,2020-10-21 18:07:28.720
7,4,10,4,27,15,6,9,6,12,2,7,8,3,6,2020-10-21 18:07:28.737
8,6,12,24,8,15,6,8,6,9,8,6,4,2,8,2020-10-21 18:07:28.754
6,8,9,4,18,14,2,11,6,14,6,4,3,8,2020-10-21 18:07:28.770
6,7,2,15,6,12,4,12,4,12,2,4,6,3,2,2020-10-21 18:07:28.787
6,8,11,12,8,11,6,12,4,17,5,6,2,6,2020-10-21 18:07:28.803
6,8,10,2,11,20,8,18,2,26,2,7,2,3,4,2020-10-21 18:07:28.819
5,4,9,7,26,22,4,30,2,9,4,3,6,2020-10-21 18:07:28.836
7,2,14,2,7,6,28,2,24,8,31,8,10,6,2,6,2020-10-21 18:07:28.853
5,6,11,6,7,2,28,4,23,4,30,4,10,2,2,2,2020-10-21 18:07:28.870
4,6,9,6,7,4,26,4,19,4,35,4,11,6,3,2020-10-21 18:07:28.886
3,4,10,8,6,2,19,2,12,6,26,2,9,2,4,2020-10-21 18:07:28.903
4,2,12,4,5,6,17,6,12,4,28,4,8,4,2,2,2020-10-21 18:07:28.920
2,6,7,4,6,16,4,12,2,25,8,8,8,2,8,2020-10-21 18:07:28.937
2,6,7,6,7,2,19,8,12,6,26,2,9,4,3,2,2020-10-21 18:07:28.953
4,2,9,2,9,2,17,4,12,2,14,2,7,2,4,2020-10-21 18:07:28.970
4,2,7,8,8,8,14,8,12,17,6,7,2,3,2020-10-21 18:07:28.986
4,7,11,12,11,8,18,8,7,3,2020-10-21 18:07:29.004
4,8,9,6,11,9,4,6,14,2,4,6,2,4,2020-10-21 18:07:29.020
7,4,12,8,10,4,8,4,6,2,16,6,3,6,2,4,2020-10-21 18:07:29.037
6,9,8,7,4,11,6,8,4,18,2,4,8,3,2020-10-21 18:07:29.054
6,2,11,7,6,13,2,8,2,16,2,4,2,3,2020-10-21 18:07:29.070
7,6,12,6,6,12,5,4,11,8,3,3,2020-10-21 18:07:29.087
6,8,9,8,5,6,17,9,14,4,4,3,4,2020-10-21 18:07:29.104
4,2,8,4,12,2,17,2,9,6,12,6,3,8,3,2020-10-21 18:07:29.120
4,8,10,11,6,13,6,8,10,4,2,6,3,4,2020-10-21 18:07:29.138
5,9,13,13,8,11,4,11,2,3,2,2,6,2020-10-21 18:07:29.154
3,4,9,4,12,2,17,6,10,4,10,8,3,2,4,2020-10-21 18:07:29.170
4,4,10,4,15,8,14,8,8,8,10,2,6,2,4,2020-10-21 18:07:29.186
4,2,10,2,11,4,12,4,9,4,12,4,3,4,3,2020-10-21 18:07:29.203
3,8,9,2,11,6,12,6,12,2,12,4,3,4,2,2,2020-10-21 18:07:29.220
4,10,8,11,6,13,9,8,12,3,8,2,4,2020-10-21 18:07:29.237
4,6,7,6,13,6,10,6,11,9,6,4,2,3,6,2020-10-21 18:07:29.253
4,8,12,8,12,6,9,4,10,6,14,4,4,8,3,4,2020-10-21 18:07:29.270
5,2,11,6,10,6,8,2,9,6,12,4,4,2,8,2020-10-21 18:07:29.286
6,16,2,15,8,9,4,9,4,16,6,3,2,2020-10-21 18:07:29.304
6,6,18,15,6,10,4,7,6,15,5,8,3,2,2020-10-21 18:07:29.320
6,18,8,19,6,13,2,7,2,14,8,5,2,2,2,2020-10-21 18:07:29.337
5,4,14,2,17,4,13,4,5,4,8,3,8,1,8,2020-10-21 18:07:29.354
6,6,14,6,19,19,2,9,8,12,8,7,1,6,2020-10-21 18:07:29.370
5,2,9,13,6,17,8,11,2,5,6,1,2020-10-21 18:07:29.387
4,8,6,8,11,6,12,8,8,4,11,4,8,0,6,2020-10-21 18:07:29.404
5,6,7,4,5,4,13,6,8,8,11,6,4,6,1,2,2020-10-21 18:07:29.421
4,6,5,6,7,8,12,6,9,6,11,4,6,2,2020-10-21 18:07:29.438
4,2,6,6,6,2,7,6,4,5,4,1,2,3,2020-10-21 18:07:29.454
4,6,8,4,9,6,9,6,3,8,3,6,1,4,3,2020-10-21 18:07:29.471
3,6,8,9,6,10,2,3,4,5,2,2,6,3,6,2020-10-21 18:07:29.487
2,6,7,6,14,6,2,4,6,2,4,3,4,2020-10-21 18:07:29.504
2,8,7,8,13,6,7,8,2,2,6,8,3,8,2,8,2020-10-21 18:07:29.521
2,6,6,4,14,2,8,6,3,6,6,4,6,2,6,2020-10-21 18:07:29.538
5,2,13,6,16,6,8,7,4,12,6,5,6,2,4,2020-10-21 18:07:29.554
6,6,13,8,16,6,9,8,12,8,5,6,2,2020-10-21 18:07:29.571
6,4,13,6,14,8,8,8,8,2,14,2,4,6,1,4,2020-10-21 18:07:29.588
7,2,13,8,13,2,8,6,9,6,18,6,6,2,2,2,2020-10-21 18:07:29.604
6,2,13,4,14,9,2,9,6,18,8,5,6,2,4,2020-10-21 18:07:29.620
3,4,4,6,11,4,8,4,5,6,15,4,4,2,6,2020-10-21 18:07:29.637
2,8,3,6,12,8,8,8,18,2,4,3,2020-10-21 18:07:29.654
2,6,4,4,11,8,8,10,17,5,3,2,2020-10-21 18:07:29.671
1,6,4,2,12,6,8,8,4,12,3,6,2,6,2020-10-21 18:07:29.687
1,8,4,6,11,4,5,4,7,4,11,8,3,2,3,2,2020-10-21 18:07:29.704
2,5,2,9,10,8,9,6,10,6,3,8,3,2020-10-21 18:07:29.721
2,5,2,8,15,4,7,6,7,2,3,8,2,8,2020-10-21 18:07:29.738
2,6,5,8,6,6,15,6,6,6,5,8,2,4,3,2,2020-10-21 18:07:29.754
2,6,5,2,6,18,6,6,6,4,2,4,2,8,2020-10-21 18:07:29.771
3,4,8,4,4,20,6,7,6,6,2,8,2,2020-10-21 18:07:29.787
2,2,4,8,5,8,18,6,4,6,6,2,4,2,2,2020-10-21 18:07:29.804
3,4,4,8,7,2,12,4,5,5,8,2,2,2,6,2020-10-21 18:07:29.821
3,2,4,6,7,6,10,8,4,6,5,6,2,4,2,2,2020-10-21 18:07:29.838
3,4,6,6,4,12,6,5,4,6,4,2,4,2,6,2020-10-21 18:07:29.854
3,6,6,2,7,2,10,6,7,8,8,3,2,6,2020-10-21 18:07:29.871
4,8,7,2,8,8,9,6,7,7,6,2,6,2,4,2020-10-21 18:07:29.887
4,2,9,8,7,10,2,7,4,10,6,3,6,3,2020-10-21 18:07:29.905
4,10,6,2,12,2,8,12,4,3,8,3,6,2020-10-21 18:07:29.921
4,2,11,7,8,8,7,4,12,3,8,3,4,2020-10-21 18:07:29.938
4,11,6,8,2,7,8,7,14,8,4,2,8,2020-10-21 18:07:29.955
3,2,12,5,6,5,6,6,15,8,3,8,3,8,2020-10-21 18:07:29.972
2,2,8,6,8,4,8,4,7,4,13,2,2,3,2020-10-21 18:07:29.987
2,2,7,8,2,7,2,8,12,2,1,6,2,4,2020-10-21 18:07:30.004
5,4,13,8,10,8,8,8,10,4,15,2,3,2,8,2020-10-21 18:07:30.021
5,12,8,8,8,11,4,11,8,17,2,4,3,2,2020-10-21 18:07:30.038
5,11,10,12,2,13,4,18,5,4,2,8,2020-10-21 18:07:30.054
5,8,13,2,7,10,11,17,2,5,8,3,2020-10-21 18:07:30.071
7,8,17,6,9,12,12,18,2,7,3,2,2020-10-21 18:07:30.087
4,2,8,2,5,4,9,4,11,16,6,5,4,2,8,2020-10-21 18:07:30.104
4,8,9,4,5,4,11,2,10,11,8,3,6,2,4,2020-10-21 18:07:30.121
4,6,9,8,4,8,12,2,9,10,6,2,6,2,2020-10-21 18:07:30.138
4,7,8,6,10,8,9,2,9,4,2,8,1,6,2020-10-21 18:07:30.155
3,2,6,2,6,2,9,8,9,2,8,8,1,8,1,4,2020-10-21 18:07:30.171
4,2,11,8,10,7,8,6,6,2,6,1,4,2020-10-21 18:07:30.188
4,8,14,10,4,8,2,6,2,4,4,2,2,2020-10-21 18:07:30.205
4,6,14,2,10,4,6,6,5,5,8,2,8,1,8,2020-10-21 18:07:30.222
4,6,17,4,9,8,6,6,5,6,6,2,6,1,8,2020-10-21 18:07:30.238
3,6,14,2,9,2,6,2,4,6,8,8,2,8,2,2,2020-10-21 18:07:30.255
4,6,14,7,8,10,2,5,8,9,8,2,2,2,4,2020-10-21 18:07:30.272
5,4,14,2,5,4,12,6,8,10,6,2,4,1,8,2020-10-21 18:07:30.288
5,8,15,2,3,4,11,8,6,4,9,2,1,8,2,2020-10-21 18:07:30.305
5,6,13,6,2,8,12,6,5,8,12,2,2,2,2020-10-21 18:07:30.322
5,4,14,2,1,4,11,8,5,8,11,2,2,4,1,4,2020-10-21 18:07:30.339
4,9,6,3,6,7,4,10,4,3,1,2,2020-10-21 18:07:30.355
4,8,15,4,7,2,10,8,8,6,15,8,3,6,1,2,2020-10-21 18:07:30.372
4,6,14,4,10,6,12,8,9,4,14,2,3,4,1,2,2020-10-21 18:07:30.388
4,4,13,2,11,14,4,10,13,2,3,6,1,2,2020-10-21 18:07:30.404
4,2,13,6,13,6,14,8,8,4,10,2,3,2,1,4,2020-10-21 18:07:30.421
4,4,16,4,12,6,15,6,8,6,10,6,2,8,2,2020-10-21 18:07:30.438
2,2,8,4,13,2,13,5,2,5,8,2,8,2,2,2020-10-21 18:07:30.455
2,6,7,6,10,6,11,4,5,8,7,2,3,2,2,4,2020-10-21 18:07:30.471
3,2,10,8,11,2,11,4,6,8,6,4,2,4,2,2020-10-21 18:07:30.488
4,2,12,8,9,6,12,7,4,8,2,6,1,8,2020-10-21 18:07:30.504
4,2,10,8,8,11,8,8,4,7,4,2,2,2,2020-10-21 18:07:30.522
3,8,8,6,3,4,7,8,8,7,4,1,6,2,2,2020-10-21 18:07:30.538
3,4,9,2,3,2,9,7,7,4,1,6,2,2020-10-21 18:07:30.555
3,6,2,2,2,6,4,5,8,7,4,2,4,2,2020-10-21 18:07:30.572
2,6,4,2,4,2,9,2,6,6,7,2,2,4,2,2020-10-21 18:07:30.589
3,2,7,6,8,8,10,2,6,4,7,2,2,4,1,2,2020-10-21 18:07:30.605
3,8,7,6,9,4,9,8,4,2,9,3,2,1,6,2020-10-21 18:07:30.622
6,12,4,9,4,10,6,8,6,15,4,3,4,2,6,2020-10-21 18:07:30.639
6,8,14,8,10,4,16,2,10,8,18,2,3,6,3,2,2020-10-21 18:07:30.656
6,6,15,7,6,12,4,9,6,17,2,3,8,3,6,2020-10-21 18:07:30.672
5,6,11,2,3,2,11,2,8,8,17,8,4,3,8,2020-10-21 18:07:30.689
5,8,12,6,3,10,4,8,6,14,4,3,4,3,2020-10-21 18:07:30.705
3,8,9,2,4,9,6,4,2,7,2,2,6,1,8,2020-10-21 18:07:30.722
3,4,7,2,6,5,2,2,4,5,4,2,2,1,4,2020-10-21 18:07:30.739
4,6,10,8,3,6,5,4,8,3,1,2,2020-10-21 18:07:30.756
4,2,10,4,4,5,4,4,6,8,8,3,2,1,2020-10-21 18:07:30.772
3,2,9,4,4,2,6,2,4,4,9,6,3,1,2020-10-21 18:07:30.789
3,4,8,4,4,8,7,4,4,4,9,4,3,4,1,2,2020-10-21 18:07:30.805
4,4,10,8,3,2,6,4,5,9,8,3,8,1,2020-10-21 18:07:30.822
4,13,8,4,8,7,8,5,2,7,8,2,2,1,6,2020-10-21 18:07:30.838
4,15,4,4,2,10,8,5,6,6,6,2,1,6,2020-10-21 18:07:30.855
3,8,15,2,5,6,12,7,6,5,6,2,1,6,2020-10-21 18:07:30.872
3,8,18,6,6,2,9,8,8,5,2,1,8,2,2,2020-10-21 18:07:30.889
2,6,15,6,2,11,4,7,6,3,2,0,8,2,2,2020-10-21 18:07:30.905
1,4,7,4,5,2,10,2,6,4,1,1,4,2020-10-21 18:07:30.922
2,6,12,4,5,4,9,5,4,4,4,1,2,2,2,2020-10-21 18:07:30.939
3,12,6,2,7,4,2,7,2,2,4,2020-10-21 18:07:30.956
3,4,12,7,6,7,2,4,8,11,4,2,8,1,6,2020-10-21 18:07:30.972
3,13,10,6,8,4,4,11,3,2,1,8,2020-10-21 18:07:30.989
4,4,17,6,9,4,7,6,4,2,9,8,3,6,1,8,2020-10-21 18:07:31.005
3,8,14,12,8,5,8,4,2,9,6,3,8,1,4,2020-10-21 18:07:31.023
3,8,13,8,12,2,8,2,4,8,8,3,4,1,6,2020-10-21 18:07:31.039
4,8,14,6,10,4,9,6,4,8,5,2,2,6,1,8,2020-10-21 18:07:31.056
4,8,14,10,8,6,4,6,6,2,2,6,1,6,2020-10-21 18:07:31.073
5,2,11,6,13,4,10,2,4,8,8,2,3,2,1,8,2020-10-21 18:07:31.089
6,4,10,2,12,6,9,4,4,6,7,8,2,6,1,8,2020-10-21 18:07:31.105
6,2,10,4,12,2,6,6,4,8,10,2,3,1,4,2020-10-21 18:07:31.123
5,4,6,2,13,6,4,6,4,2,13,3,2,2,2020-10-21 18:07:31.139
5,4,5,8,12,8,5,4,11,6,3,1,8,2020-10-21 18:07:31.156
3,8,3,8,10,2,5,6,7,8,15,3,2,2020-10-21 18:07:31.173
2,4,2,2,8,8,6,8,2,15,3,1,8,2020-10-21 18:07:31.189
2,2,2,8,10,2,6,8,4,13,8,3,2,2,2020-10-21 18:07:31.205
2,8,9,9,4,8,8,6,8,11,8,3,2,1,4,2020-10-21 18:07:31.222
4,2,14,2,10,4,9,2,8,12,2,3,2,2020-10-21 18:07:31.239
4,2,13,8,11,8,6,4,4,7,6,2,1,8,2020-10-21 18:07:31.255
4,2,14,6,12,2,6,6,4,10,6,2,8,1,8,2020-10-21 18:07:31.273
5,8,18,8,10,2,8,6,3,2,7,6,1,8,1,6,2020-10-21 18:07:31.289
4,4,12,2,13,4,8,2,3,8,6,4,1,2,1,8,2020-10-21 18:07:31.305
4,8,10,6,16,8,4,3,4,8,1,8,1,4,2020-10-21 18:07:31.323
4,8,12,14,4,8,2,5,6,11,8,3,1,6,2020-10-21 18:07:31.339
4,6,11,2,13,4,9,8,5,9,2,2,4,1,4,2020-10-21 18:07:31.356
3,4,6,8,15,8,6,5,6,9,2,2,4,1,6,2020-10-21 18:07:31.373
4,6,8,4,11,6,8,4,5,2,9,4,2,4,1,4,2020-10-21 18:07:31.390
2,6,4,8,10,2,12,8,6,6,8,8,2,6,1,6,2020-10-21 18:07:31.406
2,6,3,2,9,2,12,6,5,8,5,8,2,1,6,2020-10-21 18:07:31.423
2,6,6,4,8,8,12,4,7,2,6,2,4,1,8,2020-10-21 18:07:31.440
2,6,6,2,8,2,11,2,9,2,10,6,4,1,6,2020-10-21 18:07:31.456
1,2,5,2,7,8,13,10,8,10,8,4,6,2,2,2020-10-21 18:07:31.473
2,6,8,6,11,9,6,10,8,4,6,2,2,2020-10-21 18:07:31.490
2,6,8,7,12,8,6,9,2,4,1,8,2020-10-21 18:07:31.506
2,6,5,4,10,2,14,4,8,2,9,8,4,1,6,2020-10-21 18:07:31.523
3,8,8,10,6,14,8,6,6,5,6,3,2,2,2,2020-10-21 18:07:31.540
3,8,8,11,8,14,7,4,7,4,2,6,2,2,2020-10-21 18:07:31.556
2,4,8,4,12,2,13,8,8,6,8,4,2,2,2020-10-21 18:07:31.572
1,8,7,4,14,13,4,9,8,8,8,2,4,2,2,2020-10-21 18:07:31.589
1,4,7,8,13,10,4,9,2,8,6,2,2,6,2020-10-21 18:07:31.606
1,4,4,2,15,6,11,4,9,10,6,1,4,1,8,2020-10-21 18:07:31.623
1,6,3,8,15,2,13,2,8,4,9,2,1,4,1,4,2020-10-21 18:07:31.639
2,6,5,2,13,4,15,2,7,4,7,2,1,8,1,2,2020-10-21 18:07:31.656
2,6,7,8,12,4,16,8,7,8,10,2,1,8,1,4,2020-10-21 18:07:31.673
3,8,2,12,6,15,4,7,6,10,8,1,8,1,2020-10-21 18:07:31.690
3,2,9,8,11,15,2,7,9,2,1,8,1,6,2020-10-21 18:07:31.706
3,6,9,4,11,4,13,6,6,6,10,1,8,1,6,2020-10-21 18:07:31.723
2,6,8,6,12,10,4,5,2,12,1,4,1,8,2020-10-21 18:07:31.740
2,8,7,6,10,11,4,3,8,8,1,6,1,6,2020-10-21 18:07:31.756
3,2,7,8,7,6,11,4,4,4,12,2,2,8,2,2,2020-10-21 18:07:31.773
3,7,8,4,4,14,4,4,4,12,8,2,8,2,2020-10-21 18:07:31.790
3,9,3,8,11,2,3,4,12,8,3,2,2,2020-10-21 18:07:31.806
4,8,8,5,8,9,2,4,6,11,8,3,4,2,2,2020-10-21 18:07:31.823
4,6,8,7,8,6,4,4,14,4,2,2,2020-10-21 18:07:31.840
3,8,5,8,8,7,5,10,6,3,6,1,8,2020-10-21 18:07:31.857
3,4,5,2,11,4,2,6,2,12,4,4,2,2020-10-21 18:07:31.874
3,4,4,8,10,6,6,8,6,4,10,4,2,2,2020-10-21 18:07:31.889
2,8,4,6,11,8,8,5,8,11,2,4,6,2,4,2020-10-21 18:07:31.906
3,2,4,8,9,2,9,6,5,4,9,3,6,2,4,2020-10-21 18:07:31.923
3,4,7,9,11,8,5,2,6,6,2,8,2,2,2020-10-21 18:07:31.940
3,2,7,8,14,2,4,6,5,6,2,4,1,4,2020-10-21 18:07:31.956
3,7,8,9,2,14,5,4,6,2,8,1,2,2020-10-21 18:07:31.973
3,4,8,2,8,6,11,6,4,8,4,4,2,2,1,4,2020-10-21 18:07:31.990
2,8,9,8,8,11,2,5,4,5,6,2,2,1,8,2020-10-21 18:07:32.006
2,4,7,2,11,8,9,4,2,5,6,2,2,2,2,2020-10-21 18:07:32.023
2,6,5,8,12,8,5,4,5,4,10,2,2,8,2020-10-21 18:07:32.040
2,6,6,8,12,4,3,4,4,8,11,2,1,8,3,8,2020-10-21 18:07:32.057
2,2,7,13,3,8,5,6,10,1,8,3,2020-10-21 18:07:32.074
2,2,6,4,13,4,5,6,5,2,9,2,1,6,2,8,2020-10-21 18:07:32.090
2,4,7,2,12,5,2,5,10,4,1,8,2,6,2020-10-21 18:07:32.106
2,6,6,6,10,8,5,6,8,6,3,4,2,4,2020-10-21 18:07:32.124
3,2,8,6,11,5,4,5,4,7,8,3,8,1,4,2020-10-21 18:07:32.140
3,4,10,10,8,8,8,5,9,2,4,2,1,6,2020-10-21 18:07:32.157
4,2,10,6,12,6,8,11,2,5,8,1,6,2020-10-21 18:07:32.174
3,6,14,11,8,7,8,8,6,13,2,5,6,1,4,2020-10-21 18:07:32.191
3,4,15,2,11,4,9,6,7,8,14,5,2,1,2,2020-10-21 18:07:32.207
3,10,4,11,2,12,8,9,4,13,6,4,6,1,6,2020-10-21 18:07:32.224
2,4,8,8,8,6,9,8,10,4,13,4,4,1,6,2020-10-21 18:07:32.241
2,2,10,9,10,6,8,14,6,2,6,1,4,2020-10-21 18:07:32.257
2,6,6,6,7,9,6,7,6,13,4,2,8,1,2,2020-10-21 18:07:32.274
2,4,5,6,7,2,11,4,8,4,13,6,2,1,2,2020-10-21 18:07:32.290
2,2,8,6,6,6,7,8,6,4,15,2,2,2,1,2020-10-21 18:07:32.307
4,8,17,4,9,7,8,5,2,14,8,2,2,1,6,2020-10-21 18:07:32.324
5,19,4,7,10,4,4,12,8,3,1,6,2020-10-21 18:07:32.340
4,6,19,2,8,6,9,2,4,4,14,2,3,6,2,2020-10-21 18:07:32.357
5,6,21,7,8,5,4,3,2,11,6,3,4,2,2,2020-10-21 18:07:32.374
5,19,8,4,4,6,3,2,10,6,3,4,2,2020-10-21 18:07:32.391
2,6,12,6,7,4,4,8,3,8,12,6,3,6,1,4,2020-10-21 18:07:32.407
1,8,9,7,2,6,4,12,2,4,1,8,2020-10-21 18:07:32.425
1,8,10,2,7,2,8,4,10,3,1,4,2020-10-21 18:07:32.441
2,10,4,8,2,4,6,2,2,7,4,2,4,1,4,2020-10-21 18:07:32.458
3,13,2,7,4,4,4,3,8,2,1,2,2020-10-21 18:07:32.474
3,2,9,6,4,2,8,8,2,4,1,2020-10-21 18:07:32.491
3,8,13,6,4,3,2,2,8,8,2,2,4,1,2,2020-10-21 18:07:32.507
4,6,14,2,4,6,7,2,3,2,7,4,1,4,1,4,2020-10-21 18:07:32.523
4,4,15,4,5,6,3,4,7,4,1,8,1,4,2020-10-21 18:07:32.541
4,11,2,3,2,5,8,2,6,5,8,2,1,4,2020-10-21 18:07:32.558
3,6,12,3,2,6,6,3,2,3,4,1,8,2,2,2020-10-21 18:07:32.575
3,2,10,2,3,4,6,4,4,5,2,2,6,1,6,2020-10-21 18:07:32.590
3,11,4,4,6,2,4,2,5,6,2,8,2,2,2020-10-21 18:07:32.607
2,2,11,2,5,3,8,6,2,8,4,3,4,2,2,2020-10-21 18:07:32.625
2,11,5,5,6,7,6,12,4,3,6,2,2,2020-10-21 18:07:32.640
2,11,5,2,5,6,6,13,2,3,8,1,6,2020-10-21 18:07:32.657
2,6,8,4,6,2,5,8,5,8,11,3,6,2,4,2020-10-21 18:07:32.674
2,2,3,8,6,6,6,2,13,8,4,1,6,2020-10-21 18:07:32.690
2,1,5,11,4,11,3,2,1,2,2020-10-21 18:07:32.707
2,3,5,6,10,8,3,8,8,3,1,4,2020-10-21 18:07:32.724
3,2,6,8,5,12,3,6,6,6,2,8,1,6,2020-10-21 18:07:32.741
2,2,7,2,2,8,14,2,3,8,6,2,2,6,1,2,2020-10-21 18:07:32.758
2,6,10,2,14,4,2,8,3,4,1,6,1,4,2020-10-21 18:07:32.775
2,8,13,8,2,4,10,6,4,6,2,2,2,1,6,2020-10-21 18:07:32.791
3,4,13,4,2,6,9,4,3,2,7,4,2,4,1,8,2020-10-21 18:07:32.808
2,4,9,2,8,7,6,3,8,9,2,2,1,6,2020-10-21 18:07:32.825
2,6,11,3,8,7,4,3,6,9,4,2,1,8,2020-10-21 18:07:32.841
2,2,8,6,4,8,7,8,3,4,8,4,1,8,2,2020-10-21 18:07:32.858
2,6,8,5,4,8,2,8,4,1,6,2,2020-10-21 18:07:32.874
1,8,6,5,8,9,4,1,8,7,1,6,2,2,2020-10-21 18:07:32.891
1,4,7,2,8,2,11,2,1,5,4,1,8,2,2,2020-10-21 18:07:32.907
1,2,7,9,6,8,8,0,8,5,6,2,1,6,2020-10-21 18:07:32.924
1,6,8,8,10,6,1,8,7,2,2,1,8,2020-10-21 18:07:32.941
1,8,7,8,10,2,17,8,6,6,2,2,2,2020-10-21 18:07:32.958
1,6,10,8,4,15,4,6,6,8,1,8,1,6,2020-10-21 18:07:32.975
1,8,8,8,8,15,8,6,8,7,2,2,2,2020-10-21 18:07:32.991
2,4,8,8,6,16,6,7,2,7,2,1,6,2,6,2020-10-21 18:07:33.007
2,2,8,8,10,8,17,6,6,8,8,2,4,3,2020-10-21 18:07:33.025
2,9,2,9,4,18,6,2,8,8,2,2,2,2,8,2020-10-21 18:07:33.041
1,6,8,4,12,2,17,4,3,8,6,6,2,6,3,2020-10-21 18:07:33.058
2,4,9,6,13,4,15,6,4,6,7,6,3,4,2,6,2020-10-21 18:07:33.075
2,9,10,8,15,2,4,6,7,2,3,4,2,6,2020-10-21 18:07:33.092
2,4,8,4,8,6,11,6,5,4,7,4,3,8,2,2020-10-21 18:07:33.108
2,8,7,8,2,5,2,5,6,6,4,1,6,2020-10-21 18:07:33.124
3,8,7,8,5,6,5,4,7,4,1,6,2020-10-21 18:07:33.141
5,2,13,4,2,8,6,6,4,5,6,3,1,6,2020-10-21 18:07:33.157
5,2,14,8,3,4,6,4,4,2,6,3,4,1,2,2020-10-21 18:07:33.174
5,17,3,6,7,2,4,6,3,6,2,1,2020-10-21 18:07:33.191
6,6,22,4,3,2,6,4,5,4,6,2,2,1,2,2020-10-21 18:07:33.207
6,4,24,4,5,2,5,6,5,4,4,1,8,2,2020-10-21 18:07:33.224
4,18,4,6,9,6,6,6,4,1,6,2,2020-10-21 18:07:33.241
4,6,18,4,7,9,4,5,6,5,4,1,2,1,8,2020-10-21 18:07:33.258
4,6,14,6,10,2,9,4,4,8,6,8,1,6,1,8,2020-10-21 18:07:33.275
2,8,8,8,13,8,4,4,4,5,2,1,2,1,8,2020-10-21 18:07:33.291
2,5,6,13,4,8,2,4,5,8,1,6,1,2020-10-21 18:07:33.308
3,6,7,2,13,4,4,2,3,4,6,1,6,0,8,2020-10-21 18:07:33.324
3,8,6,2,12,8,6,6,5,8,4,3,1,2020-10-21 18:07:33.342
3,6,7,6,11,6,7,8,4,4,8,6,2,6,0,8,2020-10-21 18:07:33.358
3,4,8,4,12,2,8,8,5,2,11,4,3,0,8,2020-10-21 18:07:33.375
3,4,8,11,10,6,5,4,12,2,6,0,8,2020-10-21 18:07:33.392
4,4,11,8,9,8,9,4,5,4,11,4,3,0,8,2020-10-21 18:07:33.409
4,2,11,2,11,4,9,8,4,8,9,2,1,8,1,4,2020-10-21 18:07:33.425
4,2,11,9,6,8,5,8,7,2,1,8,1,6,2020-10-21 18:07:33.442
4,6,12,8,8,2,7,6,6,2,4,4,1,6,1,8,2020-10-21 18:07:33.459
4,6,12,7,8,6,2,6,4,4,2,2,1,6,2020-10-21 18:07:33.476
3,8,14,5,6,5,3,6,1,6,2,2020-10-21 18:07:33.491
2,6,9,2,12,6,3,8,4,2,8,1,6,1,2020-10-21 18:07:33.509
3,10,13,8,5,6,3,2,3,2,1,8,1,2020-10-21 18:07:33.525
5,14,14,2,5,8,1,6,4,4,1,8,0,6,2020-10-21 18:07:33.541
5,6,16,16,2,10,8,2,6,4,1,8,1,2,2020-10-21 18:07:33.558
4,6,13,8,12,4,12,4,3,6,2,2,4,1,2,2020-10-21 18:07:33.575
4,4,14,4,12,2,12,4,3,6,6,2,2,2,1,2,2020-10-21 18:07:33.592
3,6,13,4,11,4,12,6,4,2,6,4,2,4,1,6,2020-10-21 18:07:33.608
2,8,4,10,8,13,4,4,2,6,2,4,1,8,2020-10-21 18:07:33.625
1,4,7,10,8,8,6,3,2,5,4,2,2,1,4,2020-10-21 18:07:33.642
1,6,8,4,11,7,2,3,4,2,1,8,1,6,2020-10-21 18:07:33.659
2,4,7,4,9,8,6,4,2,2,3,4,2,1,8,2020-10-21 18:07:33.675
3,7,11,6,4,2,8,4,2,2,2,1,6,2020-10-21 18:07:33.692
2,6,4,10,8,3,4,2,8,5,2,6,1,4,2020-10-21 18:07:33.709
1,8,6,4,10,6,5,3,4,5,3,2,1,8,2020-10-21 18:07:33.725
2,6,4,10,2,7,4,4,4,4,3,8,1,8,2020-10-21 18:07:33.742
1,6,5,8,12,4,7,6,6,6,3,4,2,2020-10-21 18:07:33.759
1,8,5,4,12,9,4,5,4,4,8,3,4,2,2020-10-21 18:07:33.776
2,4,6,11,2,8,8,5,8,4,3,2,4,2020-10-21 18:07:33.792
2,8,6,8,11,6,4,5,2,4,2,2,2,2,2,2020-10-21 18:07:33.809
3,6,9,8,12,8,6,4,2,5,1,4,1,6,2020-10-21 18:07:33.825
4,11,6,10,8,5,8,2,2,8,1,4,1,6,2020-10-21 18:07:33.843
4,8,14,8,9,4,6,4,2,6,4,2,1,2,2,2020-10-21 18:07:33.858
5,15,4,10,7,8,5,5,4,0,8,2,2,2020-10-21 18:07:33.875
5,4,15,4,11,8,4,5,2,6,4,0,6,2,2020-10-21 18:07:33.892
5,12,9,6,2,4,8,6,4,0,6,2,4,2020-10-21 18:07:33.908
4,8,11,8,11,2,6,2,4,8,9,2,2,2,4,2020-10-21 18:07:33.925
3,4,8,6,11,4,8,3,6,8,2,1,8,1,8,2020-10-21 18:07:33.942
3,6,13,4,8,0,8,7,1,8,1,4,2020-10-21 18:07:33.959
2,8,6,8,10,8,5,8,0,8,6,8,2,2,1,6,2020-10-21 18:07:33.975
2,8,5,8,11,2,5,8,1,9,8,3,4,1,6,2020-10-21 18:07:33.992
2,6,5,12,6,7,2,1,6,7,4,2,1,8,2020-10-21 18:07:34.009
3,2,7,6,13,8,8,2,6,6,8,2,2,1,8,2020-10-21 18:07:34.025
3,6,10,12,8,6,3,8,9,4,2,6,1,8,2020-10-21 18:07:34.042
3,2,7,8,15,7,4,6,11,8,2,6,1,8,2020-10-21 18:07:34.059
2,8,7,8,13,6,9,6,2,12,4,2,8,2,2020-10-21 18:07:34.076
2,6,6,4,14,7,6,5,6,13,3,2,1,8,2020-10-21 18:07:34.093
2,4,6,14,6,4,4,6,12,8,3,1,6,2020-10-21 18:07:34.109
2,4,3,6,14,8,6,3,6,9,6,3,2,1,8,2020-10-21 18:07:34.126
2,6,3,6,10,8,6,8,3,6,6,8,2,8,2,2,2020-10-21 18:07:34.143
3,2,6,2,12,8,4,6,3,3,6,1,8,1,8,2020-10-21 18:07:34.160
3,4,7,4,11,2,5,3,2,3,2,1,4,1,6,2020-10-21 18:07:34.176
3,6,7,15,2,5,8,3,2,5,4,1,6,1,8,2020-10-21 18:07:34.193
3,8,8,17,2,4,8,3,4,5,4,1,4,2,4,2020-10-21 18:07:34.210
3,8,8,18,2,6,4,4,6,8,2,2,2,1,8,2020-10-21 18:07:34.225
2,2,7,2,17,6,6,6,5,7,2,2,4,2,4,2020-10-21 18:07:34.242
2,6,7,2,15,4,8,5,2,6,6,2,6,2,4,2020-10-21 18:07:34.259
2,4,6,8,11,4,12,4,5,2,4,8,2,4,2,4,2020-10-21 18:07:34.275
1,8,3,8,8,11,8,5,6,7,2,2,1,4,2020-10-21 18:07:34.292
2,2,8,8,8,2,10,3,8,4,1,2,1,2,2020-10-21 18:07:34.309
2,8,10,7,8,13,4,4,4,5,6,1,8,0,8,2020-10-21 18:07:34.325
2,8,8,11,4,11,6,4,6,7,2,2,0,6,2020-10-21 18:07:34.342
2,6,9,4,9,8,6,5,8,7,6,2,4,0,8,2020-10-21 18:07:34.359
3,2,10,4,10,6,6,8,5,8,8,2,3,1,2020-10-21 18:07:34.376
3,6,4,10,6,8,6,4,10,6,4,1,4,2020-10-21 18:07:34.393
3,4,6,4,10,7,2,6,8,9,8,3,1,8,2020-10-21 18:07:34.409
3,6,6,2,8,6,6,6,8,10,4,3,2,1,8,2020-10-21 18:07:34.426
2,8,5,4,9,6,8,8,6,8,9,4,2,8,1,8,2020-10-21 18:07:34.443
3,2,5,8,6,10,4,8,9,3,2,2020-10-21 18:07:34.460
3,3,4,11,4,11,2,8,4,6,8,2,2,2,2020-10-21 18:07:34.476
2,1,6,10,8,10,2,7,2,7,4,2,6,1,8,2020-10-21 18:07:34.493
1,8,2,9,11,8,7,2,9,3,2,2,2,2020-10-21 18:07:34.510
2,4,2,6,10,10,2,6,4,9,3,8,1,8,2020-10-21 18:07:34.526
1,4,1,8,10,8,6,4,6,6,4,3,8,1,4,2020-10-21 18:07:34.543
1,2,2,8,8,4,9,3,4,5,8,3,6,1,4,2020-10-21 18:07:34.560
1,6,3,2,7,4,6,2,4,4,6,3,2,1,2,2020-10-21 18:07:34.577
1,4,4,2,7,8,4,8,2,2,1,8,2,2,1,2020-10-21 18:07:34.593
1,2,4,4,6,4,5,2,4,2,6,1,6,1,2,2020-10-21 18:07:34.609
1,6,5,6,7,8,6,6,3,2,5,8,2,6,1,2,2020-10-21 18:07:34.625
1,8,4,8,6,6,4,3,6,2,4,1,4,2020-10-21 18:07:34.644
2,2,4,6,6,2,8,2,3,2,6,6,2,2,1,2020-10-21 18:07:34.659
2,8,3,6,6,8,8,3,2,7,4,2,6,1,2,2020-10-21 18:07:34.676
2,8,3,7,2,8,2,6,7,4,2,8,1,8,2020-10-21 18:07:34.693
3,2,2,6,8,10,6,2,4,4,8,1,2,2,2,2020-10-21 18:07:34.709
2,6,2,4,6,6,9,6,2,4,5,2,2,2,2020-10-21 18:07:34.726
1,8,2,4,7,4,9,4,1,8,4,2,2,2,4,2020-10-21 18:07:34.743
1,2,3,7,8,11,6,2,2,6,1,8,2,4,2020-10-21 18:07:34.760
1,6,4,8,7,4,13,4,2,2,1,6,1,6,1,8,2020-10-21 18:07:34.777
2,4,4,8,6,4,14,8,2,8,2,8,1,8,2,2020-10-21 18:07:34.793
3,5,6,7,2,17,2,4,3,6,1,8,1,4,2020-10-21 18:07:34.810
3,5,4,8,17,8,4,2,4,2,4,1,2,2020-10-21 18:07:34.827
4,6,4,7,4,14,8,3,8,4,2,4,1,4,2020-10-21 18:07:34.844
4,2,7,6,14,2,3,8,4,2,4,1,6,2020-10-21 18:07:34.860
2,8,7,5,9,6,2,6,2,6,2,4,1,2,2020-10-21 18:07:34.876
2,6,7,4,6,8,6,1,6,2,2,2,1,2,2020-10-21 18:07:34.893
3,2,6,8,3,9,6,1,8,2,2,2,1,4,2020-10-21 18:07:34.910
3,2,5,4,2,12,6,2,2,2,2,2,2,1,2,2020-10-21 18:07:34.926
2,2,2,6,4,4,13,2,2,3,4,2,2,0,8,2020-10-21 18:07:34.943
3,8,3,2,6,8,12,4,2,6,3,6,2,2,0,8,2020-10-21 18:07:34.960
3,6,3,6,8,12,4,3,6,3,2,2,4,1,2020-10-21 18:07:34.977
3,2,6,6,6,11,2,4,3,2,2,1,2020-10-21 18:07:34.994
2,6,4,7,2,9,4,4,2,1,6,0,6,2020-10-21 18:07:35.010
3,4,10,7,2,9,2,3,8,3,8,1,8,0,8,2020-10-21 18:07:35.027
2,4,11,2,4,8,8,6,3,2,3,8,2,1,2,2020-10-21 18:07:35.044
2,6,11,8,5,8,7,4,2,6,6,4,1,8,1,2,2020-10-21 18:07:35.060
2,6,13,2,7,8,5,4,2,4,6,6,2,2,1,2020-10-21 18:07:35.077
2,13,8,7,5,2,8,6,8,2,2,1,2,2020-10-21 18:07:35.094
1,2,8,2,6,4,5,2,3,8,7,2,1,2,2020-10-21 18:07:35.110
0,8,7,2,7,4,5,4,4,6,4,1,4,0,8,2020-10-21 18:07:35.127
0,6,6,2,6,4,6,4,2,4,6,1,4,0,8,2020-10-21 18:07:35.143
0,6,5,3,6,5,3,8,5,1,2,0,8,2020-10-21 18:07:35.160
1,2,5,3,2,6,8,3,8,4,8,1,6,0,8,2020-10-21 18:07:35.177
1,8,4,4,4,4,8,2,3,2,4,6,1,8,0,8,2020-10-21 18:07:35.193
2,2,5,6,3,4,9,4,3,6,4,6,1,8,1,2020-10-21 18:07:35.210
2,8,5,2,5,2,10,8,3,3,6,1,6,1,2020-10-21 18:07:35.226
2,8,7,5,6,12,3,2,2,6,1,4,1,2,2020-10-21 18:07:35.243
2,2,5,2,6,6,13,8,2,8,2,4,1,2,1,6,2020-10-21 18:07:35.260
2,5,8,5,6,10,4,3,6,3,2,1,4,2,2,2020-10-21 18:07:35.277
1,4,3,6,5,8,8,4,3,2,4,8,2,6,2,4,2020-10-21 18:07:35.294
0,6,4,6,4,13,4,3,4,5,4,2,8,2,8,2020-10-21 18:07:35.310
0,8,2,6,4,2,13,4,3,6,7,4,3,2,2,8,2020-10-21 18:07:35.327
1,4,3,6,2,4,11,6,4,6,8,2,3,4,2,2,2020-10-21 18:07:35.344
2,3,6,1,8,13,6,4,6,9,4,2,1,6,2020-10-21 18:07:35.360
3,2,7,3,14,6,6,10,4,4,8,1,2,2020-10-21 18:07:35.377
4,6,11,3,6,10,6,6,10,2,5,2,0,8,2020-10-21 18:07:35.394
5,12,6,2,8,8,6,6,4,11,4,8,0,6,2020-10-21 18:07:35.410
5,2,12,6,2,4,6,6,5,2,12,2,4,4,0,8,2020-10-21 18:07:35.426
4,4,12,4,3,6,4,4,6,12,4,3,8,1,2020-10-21 18:07:35.444
3,4,11,6,5,2,4,6,5,11,4,2,1,6,2020-10-21 18:07:35.460
4,10,6,5,8,3,8,5,4,14,2,1,4,2,2,2020-10-21 18:07:35.477
4,11,2,7,4,5,8,6,16,1,8,2,6,2020-10-21 18:07:35.494
4,2,14,8,11,4,6,4,7,16,4,2,6,2,6,2020-10-21 18:07:35.511
4,4,15,4,11,4,10,6,8,4,19,2,8,2,8,2020-10-21 18:07:35.527
4,6,13,2,11,6,14,4,11,4,23,2,5,2,2,2,2020-10-21 18:07:35.546
3,2,14,4,13,6,14,6,11,4,20,2,6,2,1,4,2020-10-21 18:07:35.564
2,8,13,6,12,2,12,8,10,8,20,8,6,4,1,4,2020-10-21 18:07:35.579
2,4,8,6,10,2,12,6,10,2,20,6,2,1,4,2020-10-21 18:07:35.599
3,9,4,12,4,13,2,8,2,15,5,6,0,8,2020-10-21 18:07:35.611
4,4,14,8,10,11,6,5,6,9,3,4,0,8,2020-10-21 18:07:35.627
5,12,6,6,8,14,6,6,2,10,4,2,6,1,2,2020-10-21 18:07:35.644
4,6,12,8,9,2,15,6,9,2,10,2,6,1,2,2020-10-21 18:07:35.661
4,2,13,8,7,2,15,2,9,8,2,2,1,2,2020-10-21 18:07:35.678
4,12,2,5,6,14,2,11,2,14,4,4,6,1,4,2020-10-21 18:07:35.695
2,2,6,6,4,8,11,8,10,2,14,4,4,6,1,8,2020-10-21 18:07:35.711
1,6,3,6,6,10,8,6,13,6,4,4,2,2,2020-10-21 18:07:35.727
2,2,2,8,6,4,11,8,7,9,6,4,6,2,2020-10-21 18:07:35.744
3,2,4,6,7,4,14,6,7,2,9,4,4,6,2,8,2020-10-21 18:07:35.761
3,8,7,2,8,6,15,8,3,8,3,2,1,8,3,2020-10-21 18:07:35.777
4,4,8,2,9,6,15,8,3,6,3,2,2,2,6,2020-10-21 18:07:35.794
4,2,8,2,8,6,22,4,3,2,3,4,2,2,2,4,2020-10-21 18:07:35.811
4,7,4,11,23,4,1,8,2,6,1,6,2,4,2020-10-21 18:07:35.827
3,5,2,13,8,24,2,6,2,11,4,5,2,2,4,2020-10-21 18:07:35.844
2,6,6,2,11,4,21,6,4,11,8,5,2,2,2020-10-21 18:07:35.861
2,4,5,2,14,4,21,4,7,4,13,8,6,2,2020-10-21 18:07:35.878
2,4,6,16,8,12,8,8,4,13,8,6,4,1,4,2020-10-21 18:07:35.894
2,6,6,2,13,13,10,4,15,6,1,4,2020-10-21 18:07:35.911
3,2,6,6,10,6,11,8,6,6,6,2,2,6,0,4,2020-10-21 18:07:35.927
2,6,3,8,10,11,2,7,2,6,6,3,0,8,2020-10-21 18:07:35.945
2,8,5,9,4,10,7,4,6,6,2,8,0,8,2020-10-21 18:07:35.961
2,8,4,6,8,4,13,2,6,4,8,3,2,1,2020-10-21 18:07:35.978
2,6,4,8,10,9,8,4,6,9,4,3,6,1,2020-10-21 18:07:35.995
1,8,3,6,10,7,3,4,9,6,3,8,1,4,2020-10-21 18:07:36.012
2,4,6,13,4,5,8,4,12,2,4,3,2,2020-10-21 18:07:36.028
2,3,4,11,6,9,6,3,4,12,3,8,5,6,2020-10-21 18:07:36.045
2,8,3,4,12,4,6,4,2,12,4,10,2020-10-21 18:07:36.062
2,6,3,11,8,6,6,6,14,8,4,13,6,2020-10-21 18:07:36.078
3,3,2,10,8,6,8,2,18,4,6,14,2,2020-10-21 18:07:36.095
2,4,1,8,8,6,6,6,8,14,8,4,13,6,2020-10-21 18:07:36.111
2,1,6,7,2,5,4,7,4,13,4,3,2,11,6,2020-10-21 18:07:36.128
1,2,7,4,10,8,6,6,11,4,2,4,8,2020-10-21 18:07:36.145
2,6,5,8,6,13,6,5,4,8,6,4,6,4,4,2020-10-21 18:07:36.161
3,4,5,8,11,4,16,4,3,6,7,6,3,6,4,6,2020-10-21 18:07:36.178
5,6,4,13,8,19,6,5,4,8,4,3,6,3,4,2020-10-21 18:07:36.194
5,6,9,6,14,19,4,8,8,6,3,6,3,2020-10-21 18:07:36.211
6,10,4,12,2,17,2,5,2,8,4,3,4,2,2,2020-10-21 18:07:36.227
5,2,10,4,11,4,14,2,3,6,6,6,1,2,2,2020-10-21 18:07:36.245
5,8,12,8,10,8,15,4,6,4,6,0,8,1,4,2020-10-21 18:07:36.261
5,2,12,12,6,15,3,4,8,1,2,1,2,2020-10-21 18:07:36.278
4,6,9,8,17,8,12,2,3,4,6,1,8,1,4,2020-10-21 18:07:36.294
4,6,9,17,2,8,6,4,5,6,1,6,1,6,2020-10-21 18:07:36.311
4,6,9,16,2,10,2,4,8,2,1,8,1,4,2020-10-21 18:07:36.328
3,2,6,8,19,7,4,4,2,8,2,1,2,2020-10-21 18:07:36.344
2,8,7,6,16,5,6,5,2,11,2,1,4,2020-10-21 18:07:36.362
3,8,8,10,8,5,2,5,4,11,4,1,8,1,2,2020-10-21 18:07:36.378
3,2,9,2,14,4,6,2,6,2,13,8,2,1,2020-10-21 18:07:36.395
3,2,7,2,12,8,5,4,6,11,2,2,1,2,2020-10-21 18:07:36.412
3,4,7,10,8,6,6,5,4,10,2,2,4,1,2020-10-21 18:07:36.428
3,7,4,8,8,9,8,7,7,4,2,4,0,8,2020-10-21 18:07:36.445
3,2,7,2,8,6,13,6,6,4,7,8,2,2,1,4,2020-10-21 18:07:36.462
2,8,6,8,6,14,5,8,5,6,2,6,1,6,2020-10-21 18:07:36.479
2,8,8,6,2,13,7,6,10,6,3,2,1,8,2020-10-21 18:07:36.496
2,2,7,4,5,6,12,7,2,10,8,2,8,2,4,2020-10-21 18:07:36.512
2,6,2,7,2,11,4,6,11,4,2,2,2,8,2020-10-21 18:07:36.529
1,8,4,4,10,4,10,4,4,2,10,6,2,2,4,2020-10-21 18:07:36.545
2,6,8,11,4,9,3,9,1,6,2,2,2020-10-21 18:07:36.562
2,2,5,6,13,2,8,6,2,6,3,4,1,8,2,2020-10-21 18:07:36.578
2,6,5,6,14,6,8,6,2,8,4,8,2,2,2,2020-10-21 18:07:36.595
3,4,6,6,19,6,8,2,2,6,3,2,8,2,2020-10-21 18:07:36.611
3,2,8,2,17,2,7,4,2,8,4,3,6,2,4,2020-10-21 18:07:36.628
2,8,6,8,16,9,6,2,4,5,4,4,4,2,6,2020-10-21 18:07:36.645
2,6,9,17,11,8,3,6,8,8,3,6,2,6,2020-10-21 18:07:36.662
3,10,2,13,4,13,5,10,6,3,6,4,2020-10-21 18:07:36.679
2,8,14,2,8,4,10,8,5,4,10,8,3,2,5,8,2020-10-21 18:07:36.695
2,8,15,8,8,8,6,6,6,10,2,2,4,5,8,2020-10-21 18:07:36.712
2,8,15,8,9,2,6,4,7,8,9,6,1,6,7,8,2020-10-21 18:07:36.729
3,2,13,6,7,8,12,2,9,4,8,6,2,4,13,2020-10-21 18:07:36.745
3,13,6,8,8,11,8,2,5,4,2,24,2020-10-21 18:07:36.763
2,6,8,2,7,4,12,8,8,4,6,2,2,6,31,8,2020-10-21 18:07:36.778
3,4,6,8,11,4,17,4,11,6,15,4,4,35,6,2020-10-21 18:07:36.795
3,8,6,2,12,4,18,2,11,8,17,4,5,36,2020-10-21 18:07:36.812
3,2,6,13,8,17,2,9,6,22,7,4,37,2,2020-10-21 18:07:36.828
8,2,12,6,15,2,20,8,9,2,24,4,9,30,6,2020-10-21 18:07:36.845
11,16,8,17,29,6,9,6,23,8,9,37,2,2020-10-21 18:07:36.862
12,4,24,8,11,6,32,4,6,18,4,8,2,36,4,2020-10-21 18:07:36.878
18,23,8,13,32,8,5,6,17,6,9,6,37,4,2020-10-21 18:07:36.895
25,6,27,4,13,4,45,8,9,14,2,7,6,32,8,2020-10-21 18:07:36.912
29,4,34,6,11,6,50,4,20,6,22,4,10,6,27,6,2020-10-21 18:07:36.929
38,6,45,4,10,4,44,8,20,22,4,12,4,11,8,2020-10-21 18:07:36.945
45,4,47,2,12,43,8,21,6,21,8,14,8,15,2,2020-10-21 18:07:36.962
43,6,49,8,9,4,50,4,24,8,25,2,13,8,13,2020-10-21 18:07:36.979
39,8,48,6,2,35,2,21,32,17,2,12,6,2020-10-21 18:07:36.996
33,6,33,7,38,6,16,4,23,4,13,4,20,8,2020-10-21 18:07:37.013
21,6,20,4,10,6,43,2,17,6,23,11,6,22,2020-10-21 18:07:37.029
18,6,15,2,14,56,4,21,4,22,9,8,17,4,2020-10-21 18:07:37.046
15,8,13,8,18,61,4,20,21,8,12,8,17,4,2020-10-21 18:07:37.062
21,2,14,6,21,4,68,6,22,2,14,12,2,16,8,2020-10-21 18:07:37.079
18,14,8,20,8,57,6,16,4,13,4,15,6,14,2,2020-10-21 18:07:37.095
17,8,13,17,4,48,4,16,14,6,19,15,4,2020-10-21 18:07:37.112
18,2,8,2,16,29,6,13,4,21,2,19,6,16,2,2020-10-21 18:07:37.129
19,6,7,14,8,19,6,22,2,26,2,20,8,16,6,2020-10-21 18:07:37.145
10,6,5,2,13,8,30,2,25,4,27,4,19,2,16,8,2020-10-21 18:07:37.162
19,8,17,4,13,6,38,4,31,4,29,17,2,17,2020-10-21 18:07:37.180
22,25,2,13,4,49,4,31,4,28,6,20,26,2020-10-21 18:07:37.196
21,2,25,6,13,2,50,28,6,20,4,18,2,27,6,2020-10-21 18:07:37.213
22,30,9,6,47,4,17,6,18,4,15,8,35,8,2020-10-21 18:07:37.229
22,2,34,10,25,4,14,4,21,2,13,6,46,8,2020-10-21 18:07:37.246
16,8,30,8,9,24,4,8,8,19,2,12,2,40,2020-10-21 18:07:37.263
24,4,37,2,10,2,15,8,9,2,24,9,2,32,4,2020-10-21 18:07:37.280
21,8,39,8,7,6,16,2,8,4,24,4,9,4,28,2,2020-10-21 18:07:37.296
22,2,37,2,8,6,16,9,20,2,12,6,22,8,2020-10-21 18:07:37.313
28,36,4,9,20,9,2,29,2,14,2,13,2020-10-21 18:07:37.330
36,4,32,6,10,27,2,8,31,4,17,6,16,6,2020-10-21 18:07:37.346
31,8,20,4,10,4,30,8,6,2,31,17,2,14,8,2020-10-21 18:07:37.363
30,2,22,4,11,4,41,6,2,37,2,17,8,19,2,2020-10-21 18:07:37.380
28,26,8,17,2,41,6,8,37,8,12,15,8,2020-10-21 18:07:37.396
26,4,22,4,30,41,6,5,2,22,6,9,8,16,4,2020-10-21 18:07:37.412
19,8,19,2,44,8,35,2,7,21,6,7,8,23,6,2020-10-21 18:07:37.430
20,4,21,48,2,28,8,10,2,23,9,25,4,2020-10-21 18:07:37.446
23,4,20,4,59,18,6,12,2,20,8,11,4,33,2020-10-21 18:07:37.463
25,6,18,8,60,20,4,14,4,20,8,13,8,41,4,2020-10-21 18:07:37.480
30,2,40,53,8,15,4,12,6,22,16,6,39,6,2020-10-21 18:07:37.501
27,6,40,6,44,8,24,2,12,4,24,8,14,6,32,2020-10-21 18:07:37.514
29,4,55,4,44,40,8,12,4,23,2,10,8,30,2,2020-10-21 18:07:37.529
38,61,6,37,8,44,6,16,4,27,6,14,6,36,6,2020-10-21 18:07:37.546
34,60,8,30,44,15,8,26,12,4,46,4,2020-10-21 18:07:37.563
26,39,4,27,2,47,6,15,4,28,4,11,4,49,2,2020-10-21 18:07:37.580
37,8,43,2,22,2,54,6,27,8,44,29,8,53,2,2020-10-21 18:07:37.596
32,8,24,8,19,55,8,30,4,41,29,4,61,6,2020-10-21 18:07:37.612
35,4,18,2,17,2,61,28,32,8,29,8,51,8,2020-10-21 18:07:37.629
39,6,26,4,19,2,61,8,26,8,29,2,37,33,8,2020-10-21 18:07:37.645
56,8,39,8,16,64,27,4,29,6,45,2,35,4,2020-10-21 18:07:37.663
62,33,6,16,8,43,8,14,6,13,6,35,8,41,2,2020-10-21 18:07:37.680
67,8,36,4,20,2,37,8,13,8,21,6,41,6,51,2,2020-10-21 18:07:37.696
60,2,36,2,18,4,29,8,19,2,31,2,37,8,42,8,2020-10-21 18:07:37.713
72,6,29,4,21,4,46,23,31,2,37,57,4,2020-10-21 18:07:37.729
56,25,18,4,49,6,27,6,28,2,28,56,2020-10-21 18:07:37.746
43,33,6,25,58,2,36,6,30,2,23,2,51,2,2020-10-21 18:07:37.763
38,6,31,4,22,8,60,8,33,4,27,20,8,31,6,2020-10-21 18:07:37.780
39,8,34,4,22,8,58,2,28,4,28,6,19,4,49,6,2020-10-21 18:07:37.797
34,29,6,22,2,52,2,24,6,34,6,20,48,8,2020-10-21 18:07:37.813
44,8,31,2,26,4,61,2,23,39,20,6,55,4,2020-10-21 18:07:37.830
51,4,30,17,2,54,2,14,33,2,20,6,48,4,2020-10-21 18:07:37.846
68,2,38,27,4,43,6,14,2,27,30,55,2,2020-10-21 18:07:37.863
70,2,43,44,59,17,4,20,6,37,39,2020-10-21 18:07:37.880
62,8,49,8,43,2,48,6,19,6,23,6,35,4,27,6,2020-10-21 18:07:37.897
60,4,41,8,40,4,30,8,16,2,18,8,44,20,8,2020-10-21 18:07:37.914
56,37,2,51,6,33,2,15,6,22,6,49,8,25,6,2020-10-21 18:07:37.930
52,8,43,44,42,17,29,6,48,6,22,2020-10-21 18:07:37.946
66,8,39,34,35,8,11,24,4,64,2,23,4,2020-10-21 18:07:37.963
87,8,31,2,51,2,45,8,8,2,18,4,60,4,26,2020-10-21 18:07:37.980
102,2,44,2,54,6,62,2,9,6,23,2,71,8,22,2,2020-10-21 18:07:37.997
105,8,61,44,58,8,6,23,8,85,8,18,8,2020-10-21 18:07:38.013
101,66,2,38,8,49,2,5,4,21,2,97,8,14,2,2020-10-21 18:07:38.030
79,8,65,4,31,8,40,8,4,6,22,78,6,11,2,2020-10-21 18:07:38.046
58,4,68,2,16,4,32,3,20,4,78,4,5,8,2020-10-21 18:07:38.063
38,53,6,10,4,18,2,4,2,14,4,62,2,6,2020-10-21 18:07:38.080
31,4,35,12,6,23,5,8,11,6,43,8,4,2020-10-21 18:07:38.097
20,6,19,6,12,8,19,8,4,7,20,6,3,8,2020-10-21 18:07:38.113
16,6,11,8,16,6,24,4,8,2,5,8,16,8,2,6,2020-10-21 18:07:38.130
15,10,14,4,24,8,8,4,8,17,6,1,6,2020-10-21 18:07:38.147
10,4,11,6,19,20,4,6,5,4,15,2,2020-10-21 18:07:38.163
4,8,10,6,17,13,6,2,3,4,10,6,1,4,2020-10-21 18:07:38.180
3,5,6,17,8,14,8,3,6,3,6,11,2,1,6,2020-10-21 18:07:38.197
3,2,7,4,13,2,9,2,6,2,2,8,10,2,6,2020-10-21 18:07:38.214
2,9,12,2,8,4,5,6,2,8,8,6,2,6,2020-10-21 18:07:38.231
2,4,7,8,10,2,9,6,4,2,8,6,4,2,2,2020-10-21 18:07:38.247
2,7,2,10,4,7,6,6,8,2,8,5,4,4,2020-10-21 18:07:38.264
3,2,12,2,13,6,6,13,3,4,8,3,8,2020-10-21 18:07:38.281
3,10,11,8,5,8,12,4,3,2,4,4,3,2020-10-21 18:07:38.297
3,6,13,8,11,4,5,2,12,6,3,3,6,3,2,2020-10-21 18:07:38.314
5,14,8,10,5,2,13,2,3,2,4,3,2,2020-10-21 18:07:38.331
5,6,18,2,10,4,4,4,12,4,3,3,8,1,6,2020-10-21 18:07:38.346
4,6,17,4,6,4,4,6,4,2,3,1,8,2020-10-21 18:07:38.363
7,22,4,12,4,5,2,4,4,3,4,1,6,2020-10-21 18:07:38.380
6,2,15,8,11,8,3,8,6,4,3,2,3,4,1,8,2020-10-21 18:07:38.397
4,2,13,6,12,2,3,7,2,2,8,2,2,15,4,2020-10-21 18:07:38.414
4,6,12,2,16,5,10,3,2,2,2,15,2,2020-10-21 18:07:38.430
4,6,8,22,6,6,8,13,8,4,6,2,2,16,6,2020-10-21 18:07:38.447
2,6,4,2,20,6,5,15,8,3,6,0,4,16,6,2020-10-21 18:07:38.464
2,4,6,28,8,5,8,14,2,3,4,1,18,4,2020-10-21 18:07:38.480
5,6,10,4,37,8,7,6,14,5,2,5,2,2020-10-21 18:07:38.497
5,2,8,4,35,2,5,6,11,4,8,8,9,7,2020-10-21 18:07:38.514
7,2,9,2,38,4,3,4,8,11,4,14,7,6,2020-10-21 18:07:38.531
7,11,6,38,4,4,7,11,2,14,10,2,2020-10-21 18:07:38.547
11,4,13,6,30,8,6,4,9,16,2,21,11,8,2020-10-21 18:07:38.564
9,12,6,23,8,6,8,14,8,21,4,16,2020-10-21 18:07:38.581
10,8,14,25,8,6,6,6,4,13,8,21,4,15,2,2020-10-21 18:07:38.598
14,4,17,6,23,6,8,4,8,2,14,8,20,4,16,2,2020-10-21 18:07:38.614
21,4,18,8,22,9,8,8,24,4,29,6,23,8,2020-10-21 18:07:38.631
19,6,17,8,20,6,7,4,6,22,8,24,2,22,2020-10-21 18:07:38.647
18,8,15,8,19,4,6,4,5,4,26,8,31,2,19,2020-10-21 18:07:38.665
20,2,20,8,19,2,7,4,9,2,26,4,31,4,18,2,2020-10-21 18:07:38.681
17,4,19,4,10,8,7,6,9,2,22,2,27,4,15,6,2020-10-21 18:07:38.697
10,4,16,11,8,6,8,16,8,19,4,25,4,6,4,2020-10-21 18:07:38.714
9,2,13,2,11,2,8,8,29,8,29,2,35,2,6,8,2020-10-21 18:07:38.730
9,8,15,2,9,6,9,6,29,4,38,6,40,2,5,4,2020-10-21 18:07:38.747
6,8,17,2,9,4,8,2,35,4,41,42,4,6,8,2020-10-21 18:07:38.764
5,8,18,2,11,7,8,36,46,51,6,6,8,2020-10-21 18:07:38.781
5,6,20,17,8,28,42,2,51,6,9,2020-10-21 18:07:38.797
4,4,25,24,8,5,17,2,29,46,2,8,2020-10-21 18:07:38.814
5,35,6,31,8,6,6,25,15,8,34,2,10,8,2020-10-21 18:07:38.831
6,4,29,6,31,8,7,6,17,4,11,2,25,14,4,2020-10-21 18:07:38.847
5,8,26,8,30,6,7,2,16,5,6,16,8,13,6,2020-10-21 18:07:38.864
10,8,24,4,24,6,17,4,3,8,11,4,11,8,2020-10-21 18:07:38.881
12,8,30,4,29,6,10,24,8,6,4,8,11,2020-10-21 18:07:38.898
11,6,17,8,25,2,10,19,2,9,8,2,9,4,2020-10-21 18:07:38.915
11,6,15,4,25,11,2,24,9,8,8,4,4,2020-10-21 18:07:38.931
12,6,15,8,26,10,23,8,11,2,13,8,5,2020-10-21 18:07:38.947
12,19,29,8,11,23,6,12,4,15,8,4,2020-10-21 18:07:38.965
12,8,13,6,18,4,8,16,8,10,6,17,4,5,2,2020-10-21 18:07:38.981
16,2,14,6,17,6,5,8,15,4,7,4,12,6,4,2020-10-21 18:07:38.998
14,2,17,18,2,3,6,9,4,7,12,6,2020-10-21 18:07:39.015
14,2,15,6,18,5,6,8,6,5,8,2,7,2020-10-21 18:07:39.032
9,8,12,4,12,6,7,8,6,2,2,8,4,6,9,2020-10-21 18:07:39.047
9,8,7,6,12,7,4,5,3,4,2,8,4,2020-10-21 18:07:39.064
7,6,6,12,7,2,4,2,3,4,5,9,2020-10-21 18:07:39.081
9,8,13,4,10,8,9,6,3,2,4,4,6,6,7,2020-10-21 18:07:39.097
7,6,16,19,2,8,8,2,4,6,2,8,5,8,2020-10-21 18:07:39.114
10,2,18,6,22,6,2,2,7,2,9,8,5,4,2020-10-21 18:07:39.131
10,6,19,6,20,2,8,8,1,6,8,9,2,4,4,2020-10-21 18:07:39.147
14,8,21,8,23,8,12,2,6,7,6,11,3,4,2020-10-21 18:07:39.164
13,4,18,8,20,8,9,2,2,8,7,11,4,5,2,2020-10-21 18:07:39.181
14,6,19,2,12,8,2,3,2,5,7,8,6,2020-10-21 18:07:39.198
14,21,2,10,2,8,3,8,4,8,7,5,2,2020-10-21 18:07:39.215
11,8,24,2,10,4,8,3,6,6,8,2,5,4,2020-10-21 18:07:39.231
7,21,2,5,6,1,6,2,6,6,10,6,8,2020-10-21 18:07:39.248
6,4,17,6,6,2,2,6,2,2,5,8,8,2,5,2020-10-21 18:07:39.265
5,8,15,6,6,3,2,2,6,2,8,2,4,2,2020-10-21 18:07:39.282
8,4,10,10,6,6,3,7,6,11,8,3,8,2020-10-21 18:07:39.298
8,6,4,10,8,5,6,2,8,6,10,2,4,6,2020-10-21 18:07:39.315
9,5,8,9,4,5,6,2,6,4,7,3,2,2020-10-21 18:07:39.332
9,2,3,8,4,5,2,2,8,4,4,6,6,5,2,2020-10-21 18:07:39.348
9,6,3,2,8,8,5,4,4,2,5,8,2,5,2020-10-21 18:07:39.365
5,4,4,6,3,8,2,4,3,2,6,4,8,5,2020-10-21 18:07:39.382
5,4,4,6,5,2,2,6,3,2,3,4,6,4,8,2020-10-21 18:07:39.399
5,2,4,4,5,8,2,2,4,4,5,2,5,2,2020-10-21 18:07:39.414
5,5,6,6,1,6,3,8,4,6,6,6,3,2020-10-21 18:07:39.431
4,4,7,6,6,2,1,8,4,2,3,4,5,4,6,2020-10-21 18:07:39.448
6,8,6,5,8,1,8,5,4,4,5,4,5,4,2020-10-21 18:07:39.464
7,8,6,4,1,8,4,8,5,7,6,4,8,2020-10-21 18:07:39.481
7,8,9,2,7,8,2,6,4,4,4,4,6,6,5,8,2020-10-21 18:07:39.498
7,8,8,8,8,6,6,8,8,4,4,5,4,5,8,2020-10-21 18:07:39.515
9,2,7,2,8,8,6,17,6,5,8,5,4,4,2,2020-10-21 18:07:39.531
7,2,17,8,8,8,6,6,19,4,5,4,4,6,3,2,2020-10-21 18:07:39.548
7,8,18,4,10,8,8,4,22,2,6,3,8,3,2,2020-10-21 18:07:39.565
8,2,15,8,6,8,2,24,5,6,4,1,6,2020-10-21 18:07:39.581
7,6,15,4,10,4,5,2,20,6,4,4,3,8,2,6,2020-10-21 18:07:39.599
6,6,22,12,6,2,13,4,3,2,4,6,3,4,2020-10-21 18:07:39.615
5,6,18,12,6,5,6,12,6,2,6,4,3,2020-10-21 18:07:39.632
3,6,16,2,11,3,8,10,1,4,3,3,6,2020-10-21 18:07:39.648
2,6,16,2,8,2,3,2,8,4,1,2,6,5,4,2020-10-21 18:07:39.665
3,17,6,5,3,2,6,8,1,2,2,6,4,6,2020-10-21 18:07:39.682
2,4,11,6,2,6,0,8,3,6,1,1,6,4,2020-10-21 18:07:39.699
2,6,5,1,6,0,6,3,1,2,1,8,4,2,2020-10-21 18:07:39.716
3,6,7,2,1,8,0,4,2,8,1,4,1,8,3,2,2020-10-21 18:07:39.732
4,4,8,2,2,2,8,2,2,1,6,1,2,2,4,2020-10-21 18:07:39.749
3,6,9,4,2,2,6,2,4,1,6,1,6,3,4,2020-10-21 18:07:39.765
6,8,8,2,4,2,8,2,2,2,2,8,3,6,2020-10-21 18:07:39.782
6,4,9,2,4,2,3,4,0,8,2,3,3,8,2020-10-21 18:07:39.798
5,2,7,4,4,3,8,1,2,1,6,3,4,4,4,2020-10-21 18:07:39.815
4,2,6,4,4,1,8,1,2,1,6,3,6,4,4,2020-10-21 18:07:39.832
4,6,4,4,1,8,1,2,1,8,3,2,3,2020-10-21 18:07:39.848
2,8,2,6,3,1,6,1,6,1,2,2,4,4,2020-10-21 18:07:39.865
4,4,2,2,2,2,1,1,6,1,1,8,5,2,2020-10-21 18:07:39.882
4,8,2,4,3,1,6,1,6,1,2,1,8,4,6,2020-10-21 18:07:39.899
5,8,3,6,3,6,1,8,2,1,2,4,2020-10-21 18:07:39.915
5,6,6,6,3,6,1,8,1,8,1,2,2,8,4,2,2020-10-21 18:07:39.932
4,4,6,4,5,4,1,8,2,1,6,3,4,2,4,2020-10-21 18:07:39.949
2,6,6,2,5,1,8,2,2,2,3,2,1,4,2020-10-21 18:07:39.965
4,8,5,6,5,2,1,2,2,4,2,4,3,8,1,8,2020-10-21 18:07:39.982
7,7,2,5,1,2,2,6,3,3,8,2,6,2020-10-21 18:07:39.999
7,2,7,5,2,1,2,3,3,2,3,4,2,8,2020-10-21 18:07:40.016
7,4,8,3,6,1,6,2,6,2,8,2,8,3,2020-10-21 18:07:40.032
7,9,3,6,3,4,6,3,2,3,6,6,2,2020-10-21 18:07:40.049
5,9,4,2,6,2,8,4,4,3,2,2,6,2020-10-21 18:07:40.065
2,7,2,4,2,4,4,2,2,8,2,8,4,8,2020-10-21 18:07:40.082
1,4,4,4,2,8,2,6,8,2,4,2,8,6,2020-10-21 18:07:40.099
2,4,4,8,4,6,2,8,9,2,4,3,6,6,8,2020-10-21 18:07:40.116
3,2,8,6,7,6,2,4,10,8,4,4,3,2,4,2020-10-21 18:07:40.133
2,6,11,4,12,3,12,2,4,2,4,4,2,2020-10-21 18:07:40.149
7,2,15,6,19,4,6,6,18,4,4,5,8,4,8,2020-10-21 18:07:40.165
8,4,15,4,24,6,10,4,30,4,4,2,6,2,4,8,2020-10-21 18:07:40.183
8,18,2,24,4,13,2,30,8,4,2,5,4,4,4,2020-10-21 18:07:40.199
8,15,2,21,4,12,4,26,6,1,6,5,6,3,8,2020-10-21 18:07:40.216
11,21,21,15,2,30,2,2,6,3,8,2020-10-21 18:07:40.232
8,8,25,8,17,6,24,4,23,4,2,4,3,6,4,2020-10-21 18:07:40.249
8,4,29,8,15,4,24,6,8,3,2,3,6,3,2,2020-10-21 18:07:40.265
10,36,6,14,6,27,6,4,3,2,4,2,4,6,2020-10-21 18:07:40.283
12,8,39,2,19,2,34,2,9,8,4,2,4,6,4,8,2020-10-21 18:07:40.299
12,33,2,17,8,32,4,8,4,4,4,4,8,2020-10-21 18:07:40.316
13,2,26,2,13,6,21,2,8,6,4,3,6,4,6,2020-10-21 18:07:40.333
13,23,8,11,6,19,9,2,2,6,2,6,4,8,2020-10-21 18:07:40.349
11,13,8,11,15,6,9,4,2,6,2,8,2,6,2020-10-21 18:07:40.366
8,2,12,6,7,8,8,4,6,4,2,2,2,4,2020-10-21 18:07:40.383
6,8,13,2,5,8,8,6,5,4,2,6,3,6,4,6,2020-10-21 18:07:40.399
3,4,14,8,5,8,7,5,2,8,5,2,4,4,2020-10-21 18:07:40.416
4,16,10,6,5,8,4,2,3,5,8,3,8,2020-10-21 18:07:40.432
4,8,17,10,8,3,8,4,2,8,6,4,4,2020-10-21 18:07:40.449
6,2,17,2,12,4,3,6,2,4,5,6,4,2,2020-10-21 18:07:40.466
7,20,16,3,4,2,6,1,2,3,6,2,2020-10-21 18:07:40.483
9,16,8,17,4,4,2,2,8,1,2,2,2,2,2,2020-10-21 18:07:40.499
11,4,16,6,12,6,3,2,3,2,8,3,4,3,4,2020-10-21 18:07:40.516
14,2,16,2,12,3,6,3,4,3,3,4,2,8,2020-10-21 18:07:40.533
13,6,13,6,8,8,5,8,3,8,4,4,4,3,2,2020-10-21 18:07:40.550
13,8,11,4,8,8,4,4,8,4,8,3,2,2020-10-21 18:07:40.566
13,14,8,2,9,4,2,4,8,5,2,8,2020-10-21 18:07:40.583
9,4,11,6,6,4,9,4,4,3,4,4,2,1,8,2020-10-21 18:07:40.600
5,6,11,2,12,4,8,4,4,2,6,2,3,4,2,2020-10-21 18:07:40.616
4,6,10,8,13,2,6,4,4,4,6,5,2,1,8,2020-10-21 18:07:40.633
4,4,9,9,8,6,2,3,6,6,8,5,2,1,4,2020-10-21 18:07:40.650
2,6,7,8,8,6,5,8,4,4,9,5,6,2,2020-10-21 18:07:40.666
2,8,8,4,9,6,2,3,6,11,2,5,2,8,2020-10-21 18:07:40.683
3,2,11,6,3,4,8,3,6,8,2,5,3,6,2020-10-21 18:07:40.699
3,4,13,3,9,2,5,4,8,4,2,2,6,2020-10-21 18:07:40.716
2,2,12,2,8,6,6,6,4,6,8,1,8,7,8,2020-10-21 18:07:40.733
2,2,11,2,4,5,2,5,8,4,8,1,4,8,4,2020-10-21 18:07:40.750
2,2,12,4,2,8,5,2,5,8,2,6,1,6,7,8,2020-10-21 18:07:40.766
3,4,11,3,2,5,4,7,4,4,6,1,8,7,4,2020-10-21 18:07:40.783
3,8,13,8,5,5,7,4,4,2,6,5,6,2020-10-21 18:07:40.800
4,8,18,2,4,8,5,4,5,8,3,4,5,4,4,2020-10-21 18:07:40.817
11,6,33,4,11,7,5,6,4,6,8,3,2020-10-21 18:07:40.833
13,4,31,2,10,6,11,9,9,9,2,3,2,2020-10-21 18:07:40.850
12,2,33,4,10,2,10,2,8,8,6,10,2,6,2020-10-21 18:07:40.867
13,31,6,9,2,10,8,6,8,4,9,8,2,2020-10-21 18:07:40.884
11,4,32,2,9,8,16,7,2,9,6,7,4,2,4,2020-10-21 18:07:40.900
5,2,17,8,4,15,6,6,6,9,2,5,6,2,2020-10-21 18:07:40.916
4,2,18,2,7,4,16,2,5,6,7,6,3,2,2020-10-21 18:07:40.933
3,8,22,2,12,17,4,6,4,8,2,2,2,3,2020-10-21 18:07:40.950
4,20,4,11,16,9,2,15,2,4,3,4,2020-10-21 18:07:40.967
4,6,19,10,8,11,10,6,21,2,5,8,3,4,2020-10-21 18:07:40.983
4,4,18,4,11,2,11,8,17,2,31,6,9,6,4,2020-10-21 18:07:41.000
4,8,20,8,9,19,4,29,6,9,2,4,2020-10-21 18:07:41.017
5,4,13,5,4,7,4,18,2,31,4,9,6,4,2020-10-21 18:07:41.034
4,14,8,7,2,7,16,8,26,2,7,4,5,4,2020-10-21 18:07:41.051
4,2,11,8,2,9,17,8,26,2,8,5,8,2020-10-21 18:07:41.066
4,13,8,8,11,2,13,8,19,6,4,6,5,8,2020-10-21 18:07:41.084
3,2,12,2,10,9,8,11,6,18,6,5,2,6,4,2020-10-21 18:07:41.100
3,2,12,8,7,4,11,8,11,4,16,2,5,6,8,2020-10-21 18:07:41.117
3,6,13,6,6,8,12,11,8,16,4,5,2,5,2020-10-21 18:07:41.133
2,8,13,6,6,15,6,9,10,8,2,8,4,2020-10-21 18:07:41.150
4,4,17,2,6,12,8,8,2,15,6,2,4,2,2020-10-21 18:07:41.166
4,4,16,6,7,2,12,2,7,2,15,4,6,2,2,6,2020-10-21 18:07:41.183
4,2,14,4,11,2,11,6,9,4,16,2,6,2,1,2,2020-10-21 18:07:41.200
3,8,11,8,14,4,14,2,10,2,20,2,7,8,2,2020-10-21 18:07:41.217
4,4,16,4,21,4,12,4,15,8,24,10,8,3,4,2020-10-21 18:07:41.233
3,8,11,31,18,21,6,26,8,10,6,3,2020-10-21 18:07:41.250
3,8,12,2,30,6,19,6,20,8,31,2,10,6,5,2,2020-10-21 18:07:41.266
4,2,14,4,29,8,18,2,20,6,35,12,2,6,2020-10-21 18:07:41.283
3,4,18,27,8,16,6,20,33,4,10,8,5,2020-10-21 18:07:41.300
2,8,16,4,22,4,12,8,16,32,8,8,4,2,2020-10-21 18:07:41.317
2,4,15,14,6,15,2,17,37,8,9,2,4,2,2020-10-21 18:07:41.334
4,8,21,18,2,18,6,18,8,34,4,8,8,2,8,2020-10-21 18:07:41.350
4,4,21,23,6,21,4,18,2,31,8,7,4,3,2020-10-21 18:07:41.367
4,8,21,4,21,6,23,22,40,6,12,2,4,2020-10-21 18:07:41.384
5,4,17,4,23,8,24,6,20,8,37,8,12,6,3,6,2020-10-21 18:07:41.400
6,6,20,4,29,4,15,8,14,2,24,8,9,4,3,4,2020-10-21 18:07:41.417
4,6,13,4,26,12,2,17,6,31,4,10,8,3,4,2020-10-21 18:07:41.434
4,2,11,8,23,4,9,17,6,30,2,11,2,3,2,2020-10-21 18:07:41.451
6,10,8,33,8,6,4,13,17,6,5,2,2020-10-21 18:07:41.467
6,11,29,4,16,8,23,4,7,6,7,2,2020-10-21 18:07:41.484
6,13,6,25,8,5,2,20,2,26,4,8,6,10,4,2020-10-21 18:07:41.501
5,8,13,8,23,4,15,6,20,7,6,11,2020-10-21 18:07:41.518
6,8,14,18,4,3,8,19,2,23,4,9,2,11,2,2020-10-21 18:07:41.534
4,8,10,8,8,4,3,4,18,6,24,2,8,8,10,2,2020-10-21 18:07:41.551
5,6,15,6,12,6,3,8,18,8,24,6,9,4,8,2020-10-21 18:07:41.567
7,4,9,6,9,8,3,8,16,8,22,6,9,8,5,2020-10-21 18:07:41.584
9,9,8,10,4,4,16,21,8,9,8,6,2,2020-10-21 18:07:41.601
12,2,25,9,6,5,8,14,4,24,8,10,2,5,8,2020-10-21 18:07:41.617
14,2,29,9,6,8,2,19,2,32,6,13,4,4,2020-10-21 18:07:41.634
14,27,5,6,7,4,19,33,4,16,8,4,2,2020-10-21 18:07:41.650
14,2,42,6,6,6,6,6,18,30,8,16,4,5,6,2020-10-21 18:07:41.667
13,6,59,8,6,6,6,21,4,31,18,8,3,6,2020-10-21 18:07:41.684
10,8,47,2,10,4,6,2,19,8,26,2,16,6,3,2,2020-10-21 18:07:41.700
11,4,45,6,12,5,6,19,4,26,16,6,4,6,2020-10-21 18:07:41.717
10,2,43,13,4,5,6,15,2,17,8,11,6,5,2,2020-10-21 18:07:41.734
8,4,29,8,12,2,5,6,13,2,16,8,10,2,3,8,2020-10-21 18:07:41.750
6,8,16,8,12,4,6,2,9,8,17,8,4,4,8,2020-10-21 18:07:41.767
9,2,17,6,8,4,5,8,13,4,7,6,5,2020-10-21 18:07:41.784
8,8,18,6,8,4,2,3,6,6,8,10,2,4,2,2020-10-21 18:07:41.800
9,2,19,2,7,6,5,2,5,8,6,8,8,3,6,2020-10-21 18:07:41.817
8,8,18,2,6,6,4,5,8,6,6,9,6,3,8,2020-10-21 18:07:41.834
9,6,13,5,6,3,6,5,4,4,8,9,6,3,2,2020-10-21 18:07:41.851
7,8,13,7,4,3,8,5,2,5,6,9,4,4,2020-10-21 18:07:41.867
8,6,10,8,7,3,2,4,4,4,4,6,4,6,2020-10-21 18:07:41.884
8,8,9,4,7,4,2,2,1,8,4,4,8,5,2,2020-10-21 18:07:41.901
7,4,10,4,10,4,4,6,1,8,4,3,6,6,6,2020-10-21 18:07:41.918
6,6,12,2,10,2,9,6,2,2,4,2,4,6,8,2020-10-21 18:07:41.934
4,8,8,8,10,9,3,4,2,8,5,8,2020-10-21 18:07:41.951
2,4,11,4,8,4,8,8,4,2,4,6,2,2,4,6,2020-10-21 18:07:41.967
3,4,16,9,4,9,6,4,4,4,2,2,4,4,2020-10-21 18:07:41.985
4,8,18,2,6,6,8,6,4,6,4,8,2,6,3,8,2020-10-21 18:07:42.001
5,2,17,4,8,8,5,6,4,8,4,6,2,8,4,2,2020-10-21 18:07:42.018
7,2,20,4,7,5,8,3,8,4,3,4,6,6,2020-10-21 18:07:42.035
7,6,18,4,7,8,7,8,2,4,2,8,4,2,6,6,2020-10-21 18:07:42.051
6,4,14,6,8,6,9,4,2,2,3,4,5,6,6,2020-10-21 18:07:42.067
5,2,11,2,10,2,8,6,2,3,2,4,5,8,2020-10-21 18:07:42.085
5,10,8,9,8,8,8,2,4,4,6,5,4,5,2,2020-10-21 18:07:42.102
4,6,11,2,10,6,8,8,4,4,8,5,6,3,2020-10-21 18:07:42.118
6,4,12,6,17,8,7,4,4,5,2,5,3,2,2020-10-21 18:07:42.135
10,2,20,8,24,9,6,6,6,5,8,5,8,2,6,2020-10-21 18:07:42.152
10,6,27,6,29,6,14,8,7,4,4,8,6,2,8,2020-10-21 18:07:42.167
10,8,28,2,32,2,16,2,12,6,4,6,2,2,2,2020-10-21 18:07:42.184
11,26,32,8,18,2,11,6,6,5,2,5,4,2020-10-21 18:07:42.201
9,6,26,6,29,2,23,2,14,8,7,2,5,6,6,2,2020-10-21 18:07:42.218
6,4,18,8,26,2,18,8,13,6,3,8,6,6,2020-10-21 18:07:42.235
6,8,12,24,2,14,11,6,5,8,3,4,7,2,2020-10-21 18:07:42.251
6,8,11,4,23,2,10,2,6,3,1,8,8,8,2020-10-21 18:07:42.267
7,4,9,23,4,8,2,5,3,2,2,6,6,2020-10-21 18:07:42.284
6,4,4,8,21,3,8,2,4,1,6,1,8,5,6,2020-10-21 18:07:42.301
13,8,5,14,8,3,6,1,6,2,2,1,8,5,8,2020-10-21 18:07:42.318
12,4,3,8,9,2,8,1,8,2,4,2,8,5,2020-10-21 18:07:42.335
12,2,3,2,6,2,3,2,1,6,2,4,2,6,4,6,2020-10-21 18:07:42.351
11,4,4,2,5,2,4,2,2,2,8,2,8,5,2,2020-10-21 18:07:42.367
14,6,3,4,3,1,6,4,3,7,4,2020-10-21 18:07:42.385
6,4,6,2,6,6,3,6,1,4,3,4,4,7,2020-10-21 18:07:42.402
6,4,7,8,6,4,4,8,4,2,8,4,4,8,6,6,2020-10-21 18:07:42.418
7,9,2,7,2,4,2,4,4,8,6,5,4,5,4,2020-10-21 18:07:42.435
5,4,8,6,2,2,8,3,8,8,6,5,6,3,8,2020-10-21 18:07:42.452
3,4,7,8,5,9,8,17,4,8,8,1,8,2020-10-21 18:07:42.469
6,8,7,8,6,4,6,8,11,18,8,4,2,2,2020-10-21 18:07:42.485
12,10,4,7,6,7,6,9,6,13,8,8,4,3,4,2020-10-21 18:07:42.502
12,6,10,4,10,8,6,9,6,14,6,8,2,3,4,2020-10-21 18:07:42.519
12,2,11,4,12,8,9,9,8,14,6,7,2,3,2,2020-10-21 18:07:42.535
11,11,2,13,7,6,4,6,5,8,3,4,5,2020-10-21 18:07:42.552
8,2,9,8,12,5,4,8,2,6,6,9,6,6,2,2020-10-21 18:07:42.569
3,6,6,4,17,6,3,8,7,5,8,9,6,5,2,2020-10-21 18:07:42.584
2,4,5,2,13,8,2,6,7,6,5,8,10,6,8,2020-10-21 18:07:42.601
4,4,5,8,15,6,3,8,7,2,6,6,11,8,6,2020-10-21 18:07:42.618
5,6,6,18,6,3,4,7,4,6,11,4,7,6,2020-10-21 18:07:42.635
5,10,2,20,4,5,3,4,4,6,5,2,7,8,2020-10-21 18:07:42.651
8,2,20,8,20,4,7,8,3,8,4,4,7,7,6,2020-10-21 18:07:42.668
12,8,22,2,21,8,9,2,3,6,4,7,4,7,2,2020-10-21 18:07:42.684
16,4,23,6,20,2,8,8,4,2,8,8,6,6,4,2020-10-21 18:07:42.702
20,2,30,22,6,8,3,6,3,8,6,5,6,2020-10-21 18:07:42.718
22,4,29,31,4,7,4,8,3,9,6,4,2,2020-10-21 18:07:42.735
19,6,25,8,24,2,5,6,8,2,6,7,6,5,4,2020-10-21 18:07:42.752
18,27,4,22,8,5,2,11,6,3,2,7,4,8,2020-10-21 18:07:42.768
15,38,6,23,7,2,12,2,3,5,4,8,2020-10-21 18:07:42.785
11,2,35,8,24,2,10,2,12,4,3,5,6,4,8,2020-10-21 18:07:42.802
8,8,34,25,8,12,6,9,4,3,8,3,6,4,8,2020-10-21 18:07:42.819
9,29,2,30,2,16,8,13,5,2,3,4,2020-10-21 18:07:42.836
6,4,28,4,30,2,17,2,9,8,4,2,8,3,6,2020-10-21 18:07:42.852
6,2,14,6,27,14,8,9,8,4,3,4,2,8,2020-10-21 18:07:42.869
7,6,12,6,18,8,14,8,9,6,4,6,3,6,3,4,2020-10-21 18:07:42.885
7,8,15,14,6,13,8,7,6,4,2,3,8,3,8,2020-10-21 18:07:42.903
7,4,12,8,13,4,11,6,4,4,3,2,3,2,3,4,2020-10-21 18:07:42.919
9,2,14,6,14,2,12,2,4,6,3,8,3,2,8,2020-10-21 18:07:42.935
7,4,15,8,15,8,14,8,4,6,4,3,2,4,2020-10-21 18:07:42.952
5,2,14,2,17,6,12,2,4,4,3,2,2,6,1,6,2020-10-21 18:07:42.969
4,6,9,6,10,8,10,4,4,3,2,3,4,0,8,2020-10-21 18:07:42.985
6,9,6,9,2,7,2,3,8,3,2,4,2,2020-10-21 18:07:43.002
3,6,5,4,10,2,6,4,3,2,4,4,8,3,2,2020-10-21 18:07:43.018
3,8,3,8,8,6,3,6,2,2,3,4,4,4,3,8,2020-10-21 18:07:43.035
3,6,3,4,7,6,3,8,3,6,2,6,3,4,5,2020-10-21 18:07:43.052
3,8,4,4,5,8,3,4,3,8,2,4,2,6,6,6,2020-10-21 18:07:43.069
2,2,4,2,5,4,6,3,5,2,2,6,2020-10-21 18:07:43.085
2,4,8,3,4,5,8,3,8,7,4,2,4,6,2020-10-21 18:07:43.102
3,5,8,3,4,5,8,3,6,6,8,2,8,5,6,2020-10-21 18:07:43.119
4,8,5,2,6,5,4,2,4,9,3,5,4,2020-10-21 18:07:43.136
6,6,4,2,2,2,6,2,8,11,4,3,6,4,4,2020-10-21 18:07:43.152
8,2,2,8,1,3,4,3,2,9,3,4,4,4,2020-10-21 18:07:43.169
8,8,2,3,3,4,4,8,11,2,5,2,4,2020-10-21 18:07:43.185
8,2,4,3,8,6,11,4,4,8,4,4,2020-10-21 18:07:43.203
9,6,2,6,3,6,5,8,5,8,13,5,8,5,4,2020-10-21 18:07:43.219
7,8,3,4,4,7,2,5,4,11,6,5,4,4,8,2020-10-21 18:07:43.236
6,4,3,5,6,10,9,13,4,5,4,4,6,2020-10-21 18:07:43.253
8,4,3,2,4,4,11,8,6,8,10,3,4,4,8,2020-10-21 18:07:43.270
10,2,4,4,5,6,11,4,7,10,3,6,2020-10-21 18:07:43.286
7,4,4,6,4,14,8,7,4,6,8,2,2,5,2020-10-21 18:07:43.303
9,8,3,2,6,8,12,6,8,6,6,2,2,6,8,2020-10-21 18:07:43.320
13,6,4,8,6,6,9,6,6,6,2,2,4,7,6,2020-10-21 18:07:43.335
13,6,11,2,8,9,5,8,5,6,2,4,9,8,2020-10-21 18:07:43.352
12,6,10,4,5,8,10,4,4,8,5,2,4,11,2020-10-21 18:07:43.369
16,6,11,4,5,5,4,7,5,2,6,10,6,2020-10-21 18:07:43.385
16,11,8,4,4,7,2,6,6,4,2,8,9,8,2020-10-21 18:07:43.402
14,10,4,4,6,6,5,2,8,2,6,10,4,2020-10-21 18:07:43.419
14,4,4,8,2,8,7,5,6,3,5,8,6,2020-10-21 18:07:43.436
14,6,5,3,2,7,5,6,2,8,5,4,7,2020-10-21 18:07:43.453
16,4,8,4,3,8,10,8,5,2,4,8,5,6,8,6,2020-10-21 18:07:43.469
21,2,13,6,4,6,9,8,4,8,5,4,8,8,8,2,2020-10-21 18:07:43.486
19,4,13,2,8,6,10,4,8,5,4,11,4,7,6,2020-10-21 18:07:43.503
19,18,10,8,13,4,4,8,4,6,9,2,6,4,2020-10-21 18:07:43.520
24,4,16,2,11,6,15,2,5,6,5,6,9,6,5,8,2020-10-21 18:07:43.536
19,2,16,8,11,2,12,6,5,4,5,2,12,6,3,4,2020-10-21 18:07:43.553
14,4,11,12,2,15,6,2,7,11,8,3,6,2020-10-21 18:07:43.570
16,2,14,2,10,4,15,5,8,6,4,9,2,2,8,2020-10-21 18:07:43.586
15,2,21,4,7,6,10,4,6,7,6,9,2,2,8,2020-10-21 18:07:43.603
11,22,8,7,4,5,2,6,4,9,2,2,4,2020-10-21 18:07:43.620
11,6,24,10,4,7,6,2,8,5,6,6,2,2,6,2020-10-21 18:07:43.637
10,8,25,4,8,2,4,6,2,3,5,6,2,2020-10-21 18:07:43.653
9,4,22,4,6,6,3,4,3,2,6,6,4,4,2020-10-21 18:07:43.670
9,9,4,6,4,5,2,3,2,4,7,2,5,2020-10-21 18:07:43.686
5,8,13,6,14,4,7,4,2,8,6,8,5,6,2020-10-21 18:07:43.703
5,4,9,6,17,2,5,6,4,4,4,6,10,4,5,6,2020-10-21 18:07:43.719
5,2,9,8,30,8,10,2,6,4,8,9,4,5,4,2020-10-21 18:07:43.736
5,16,8,36,6,10,8,5,7,9,6,3,4,2020-10-21 18:07:43.753
3,8,19,2,38,8,11,4,2,8,2,8,2,5,2020-10-21 18:07:43.769
6,2,15,29,9,3,6,8,9,5,4,2020-10-21 18:07:43.785
7,4,19,30,8,8,4,5,8,5,7,2020-10-21 18:07:43.803
8,19,4,24,8,4,4,2,4,6,4,8,7,4,2020-10-21 18:07:43.820
8,2,15,6,23,2,2,6,2,8,5,2,4,8,7,8,2020-10-21 18:07:43.836
8,4,17,2,25,3,2,8,5,2,5,8,5,8,2020-10-21 18:07:43.853
8,4,23,8,27,3,2,3,8,6,5,7,2020-10-21 18:07:43.870
7,2,29,6,26,5,8,3,4,5,8,5,6,9,6,2020-10-21 18:07:43.886
9,2,36,6,23,8,5,6,3,4,5,4,5,2,8,8,2020-10-21 18:07:43.903
9,6,48,2,29,6,5,4,3,2,3,8,4,4,8,8,2020-10-21 18:07:43.920
9,6,50,8,27,5,2,3,2,3,6,4,4,9,4,2020-10-21 18:07:43.937
7,6,44,8,25,6,4,6,3,4,8,6,6,8,8,2020-10-21 18:07:43.953
6,4,36,6,21,2,1,8,3,2,4,8,6,4,5,2,2020-10-21 18:07:43.970
11,35,4,16,2,8,4,6,6,2,6,2,5,2,2020-10-21 18:07:43.986
10,29,6,3,4,4,8,7,6,8,2,4,2,2020-10-21 18:07:44.004
12,2,22,6,4,8,3,6,7,6,8,4,2,2020-10-21 18:07:44.021
16,34,6,11,2,3,5,8,6,2,5,3,6,2020-10-21 18:07:44.037
20,6,43,14,2,3,5,2,5,6,5,3,4,2020-10-21 18:07:44.054
14,8,36,4,15,2,2,4,2,4,4,4,8,4,8,2020-10-21 18:07:44.070
16,2,29,6,15,6,2,6,2,3,2,4,5,2,2020-10-21 18:07:44.086
14,6,33,6,17,2,1,4,5,2,4,3,2,4,8,2020-10-21 18:07:44.103
11,20,8,10,6,1,6,4,1,6,3,4,4,6,2020-10-21 18:07:44.120
12,4,12,4,7,6,2,6,4,2,2,2,8,4,6,2020-10-21 18:07:44.137
12,11,4,6,4,3,4,5,2,2,8,3,2,2020-10-21 18:07:44.154
10,6,14,8,6,2,4,2,8,1,8,2,6,2,8,2020-10-21 18:07:44.170
12,8,13,2,5,4,6,4,2,2,2,2,2,4,2020-10-21 18:07:44.186
15,6,18,4,9,8,7,8,6,2,2,8,2,2,1,4,2020-10-21 18:07:44.204
9,8,15,6,9,4,7,4,6,2,2,2,1,4,2020-10-21 18:07:44.220
9,6,16,9,2,9,5,2,2,2,2,3,6,2020-10-21 18:07:44.237
10,2,12,15,8,4,6,2,6,2,6,5,2020-10-21 18:07:44.254
9,6,23,2,25,4,7,8,3,8,2,8,2,4,6,6,2020-10-21 18:07:44.271
6,8,21,6,21,8,6,6,2,2,2,6,1,6,6,6,2020-10-21 18:07:44.287
6,2,25,4,33,8,8,2,2,8,3,8,2,4,10,2020-10-21 18:07:44.303
4,4,29,2,37,6,6,2,3,6,7,3,8,4,2020-10-21 18:07:44.320
3,4,35,4,40,8,7,2,4,7,6,2,4,8,2,2020-10-21 18:07:44.337
4,6,34,32,4,8,6,2,7,2,3,2,7,6,2020-10-21 18:07:44.353
10,6,51,2,31,6,8,6,5,8,7,4,4,10,2,2020-10-21 18:07:44.370
17,2,66,6,19,7,8,5,6,6,6,5,6,6,2020-10-21 18:07:44.386
18,2,67,4,22,4,8,8,5,4,4,2,6,4,2020-10-21 18:07:44.404
26,8,70,2,20,6,9,6,5,2,4,6,8,5,2020-10-21 18:07:44.420
24,2,58,18,8,9,5,2,5,6,2,8,2,2020-10-21 18:07:44.437
21,2,39,8,19,6,7,6,5,5,2,5,6,6,2020-10-21 18:07:44.454
17,4,25,4,22,6,2,4,8,5,2,5,8,2,2020-10-21 18:07:44.470
17,24,2,18,8,4,8,4,2,5,6,7,2,8,8,2020-10-21 18:07:44.487
9,8,16,2,12,8,3,6,4,6,5,8,4,8,9,2020-10-21 18:07:44.504
10,2,16,8,15,2,2,2,2,2,4,8,4,6,7,8,2020-10-21 18:07:44.521
6,6,17,4,21,8,2,6,2,2,4,4,6,7,4,2020-10-21 18:07:44.538
9,4,13,8,22,8,3,6,2,6,4,4,5,8,5,8,2020-10-21 18:07:44.554
9,4,14,2,19,4,3,4,2,6,3,4,4,6,2,2020-10-21 18:07:44.571
12,23,8,26,8,4,2,4,2,8,4,8,6,6,2020-10-21 18:07:44.587
12,8,28,2,25,5,6,3,3,5,4,6,2020-10-21 18:07:44.604
14,31,4,18,8,5,4,2,8,3,4,5,2,4,8,2020-10-21 18:07:44.620
9,4,38,6,15,6,5,4,2,2,2,8,3,6,9,8,2020-10-21 18:07:44.637
10,2,37,6,16,8,5,4,2,4,2,6,4,2,11,4,2020-10-21 18:07:44.654
6,4,37,6,11,8,4,2,2,3,2,4,6,13,2020-10-21 18:07:44.670
7,6,34,9,4,2,6,1,4,3,2,5,6,14,4,2020-10-21 18:07:44.686
8,6,35,10,2,3,6,2,3,2,5,8,13,6,2020-10-21 18:07:44.704
8,6,32,14,8,3,6,2,6,2,6,5,2,10,6,2020-10-21 18:07:44.721
9,6,31,2,14,8,3,6,2,6,3,5,9,2020-10-21 18:07:44.737
13,6,20,2,13,8,3,2,2,6,3,5,4,8,2020-10-21 18:07:44.754
16,4,19,8,14,8,3,2,3,2,3,5,6,7,6,2020-10-21 18:07:44.771
16,19,6,21,6,1,8,2,6,3,4,6,4,8,2,2020-10-21 18:07:44.787
19,2,12,2,23,6,3,2,2,8,5,6,9,4,6,2,2020-10-21 18:07:44.804
27,4,18,2,27,6,7,4,4,8,8,2,13,2,6,8,2020-10-21 18:07:44.821
28,2,21,8,35,8,6,5,6,8,6,12,4,7,6,2020-10-21 18:07:44.838
26,8,23,4,35,8,8,4,8,10,8,13,4,6,8,2020-10-21 18:07:44.854
27,4,17,29,6,9,9,6,10,4,13,4,6,8,2020-10-21 18:07:44.871
25,4,22,24,8,9,4,10,9,2,10,4,8,6,2020-10-21 18:07:44.887
19,6,22,27,8,6,6,8,2,7,6,8,2,8,4,2020-10-21 18:07:44.904
17,6,21,4,22,8,8,8,9,2,12,6,12,6,2020-10-21 18:07:44.921
15,26,21,6,9,6,9,7,8,16,12,4,2020-10-21 18:07:44.938
14,6,24,8,18,8,10,8,7,2,8,6,16,14,8,2020-10-21 18:07:44.954
15,2,26,2,26,8,9,2,11,6,8,2,18,19,4,2020-10-21 18:07:44.971
11,8,22,4,17,6,8,6,13,2,7,6,17,4,20,4,2020-10-21 18:07:44.987
11,6,22,8,13,4,7,17,6,6,13,8,21,2020-10-21 18:07:45.004
13,8,16,16,7,4,17,6,6,6,8,8,21,6,2020-10-21 18:07:45.021
17,4,26,4,15,8,5,6,20,8,8,11,6,20,4,2020-10-21 18:07:45.038
16,4,24,2,10,2,5,2,15,6,8,2,10,8,15,4,2020-10-21 18:07:45.054
17,8,35,8,33,2,4,4,21,8,12,4,14,4,13,8,2020-10-21 18:07:45.071
21,39,8,32,8,3,2,17,8,15,4,21,12,2,2020-10-21 18:07:45.087
20,4,46,8,32,8,6,6,18,17,23,4,14,2020-10-21 18:07:45.105
18,4,39,2,44,8,2,12,6,27,35,4,14,2020-10-21 18:07:45.121
19,6,39,4,39,6,8,14,8,29,8,35,4,16,2020-10-21 18:07:45.138
17,4,26,2,16,6,14,8,7,8,34,4,42,2,16,4,2020-10-21 18:07:45.154
12,8,20,31,8,17,4,11,2,48,4,47,6,14,4,2020-10-21 18:07:45.171
11,6,14,33,14,13,2,66,6,65,11,8,2020-10-21 18:07:45.187
15,6,15,2,25,8,15,14,6,57,4,52,2,15,6,2020-10-21 18:07:45.205
15,6,11,2,30,4,14,8,13,4,60,4,59,4,16,4,2020-10-21 18:07:45.221
19,11,4,45,6,14,4,14,4,67,8,68,6,19,2,2020-10-21 18:07:45.238
21,6,11,8,37,2,13,6,9,8,59,56,8,17,2,2020-10-21 18:07:45.255
20,6,11,8,41,4,18,4,12,4,58,6,51,6,17,4,2020-10-21 18:07:45.272
16,10,6,39,8,21,2,17,8,69,8,54,4,14,6,2020-10-21 18:07:45.288
14,4,11,8,37,8,29,21,79,6,54,8,11,6,2020-10-21 18:07:45.305
16,4,12,31,27,4,25,6,78,2,48,8,7,6,2020-10-21 18:07:45.322
16,2,11,8,29,4,32,2,27,81,4,52,4,8,4,2020-10-21 18:07:45.338
18,4,11,6,20,2,27,2,26,6,64,2,36,8,11,2,2020-10-21 18:07:45.355
16,4,8,8,18,4,23,2,21,2,58,4,44,8,8,2020-10-21 18:07:45.372
17,8,6,17,16,8,31,46,6,43,2,13,8,2020-10-21 18:07:45.388
15,6,9,8,8,19,2,28,8,43,33,2,19,6,2020-10-21 18:07:45.405
12,7,8,4,6,18,8,28,4,32,6,29,6,20,4,2020-10-21 18:07:45.422
9,6,4,4,2,18,4,24,4,33,8,39,8,19,2020-10-21 18:07:45.439
10,8,7,8,4,4,22,2,22,8,25,2,34,20,8,2020-10-21 18:07:45.454
12,4,9,6,7,8,22,2,10,8,38,38,2,19,2,2020-10-21 18:07:45.471
7,8,6,2,8,2,17,6,9,8,33,6,33,6,16,4,2020-10-21 18:07:45.488
14,2,10,8,6,12,4,11,2,39,2,38,2,13,6,2020-10-21 18:07:45.504
17,13,17,2,24,4,13,8,45,2,37,4,11,8,2020-10-21 18:07:45.521
15,2,18,8,18,35,6,18,4,51,4,52,6,12,2,2020-10-21 18:07:45.538
14,6,18,2,13,6,36,2,15,2,42,4,48,6,7,2,2020-10-21 18:07:45.555
17,18,8,15,43,19,34,6,56,9,4,2020-10-21 18:07:45.572
13,6,14,2,14,45,6,18,8,35,8,67,8,10,6,2020-10-21 18:07:45.588
13,8,11,4,6,8,34,15,8,24,8,66,8,10,8,2020-10-21 18:07:45.604
15,2,4,2,6,2,29,6,15,4,22,4,53,4,11,6,2020-10-21 18:07:45.622
12,2,3,12,6,28,6,26,8,23,6,54,13,2,2020-10-21 18:07:45.638
11,4,2,14,4,34,8,21,6,30,4,53,10,2,2020-10-21 18:07:45.655
9,8,23,6,56,2,39,4,21,8,47,4,11,4,2020-10-21 18:07:45.672
8,2,10,25,2,61,48,6,30,4,48,11,6,2020-10-21 18:07:45.689
6,15,2,25,54,6,56,4,32,8,45,6,9,2020-10-21 18:07:45.705
6,8,21,27,63,6,51,30,8,47,4,8,8,2020-10-21 18:07:45.722
5,6,21,2,24,2,49,8,52,8,36,8,46,8,6,8,2020-10-21 18:07:45.739
5,2,17,18,36,4,37,39,8,46,2,7,6,2020-10-21 18:07:45.755
3,6,15,2,17,2,47,4,34,32,39,8,6,2020-10-21 18:07:45.772
5,6,14,23,44,6,30,6,33,4,40,9,8,2020-10-21 18:07:45.789
5,4,7,2,18,34,2,28,4,29,8,30,4,9,2020-10-21 18:07:45.805
5,9,2,16,6,41,4,25,6,23,27,8,9,4,2020-10-21 18:07:45.822
6,4,9,6,15,37,4,23,8,33,4,16,6,6,4,2020-10-21 18:07:45.838
6,4,12,6,17,6,23,8,20,8,34,6,16,2,4,4,2020-10-21 18:07:45.855
8,16,6,19,6,24,22,48,24,2,3,4,2020-10-21 18:07:45.871
8,2,19,6,15,8,25,8,21,58,26,6,4,8,2020-10-21 18:07:45.888
10,2,22,19,2,19,2,29,59,6,25,8,4,6,2020-10-21 18:07:45.904
8,8,20,8,22,4,12,2,28,8,55,4,29,4,5,6,2020-10-21 18:07:45.922
8,2,20,4,21,6,9,4,37,59,4,29,6,7,2020-10-21 18:07:45.939
5,8,12,8,14,6,16,4,35,4,44,4,16,4,7,4,2020-10-21 18:07:45.955
5,6,11,2,19,4,15,8,33,2,36,2,15,8,8,2,2020-10-21 18:07:45.972
4,8,11,4,17,2,15,27,2,35,4,15,2,7,8,2020-10-21 18:07:45.989
7,4,10,6,13,6,17,4,26,27,13,2,11,6,2020-10-21 18:07:46.005
7,9,6,11,2,19,19,2,23,6,13,6,10,2020-10-21 18:07:46.022
7,4,13,4,11,8,13,8,12,4,20,4,11,8,8,8,2020-10-21 18:07:46.039
8,14,2,8,6,15,4,12,4,16,2,9,4,7,2020-10-21 18:07:46.056
11,4,14,4,8,16,11,2,10,8,7,7,2,2020-10-21 18:07:46.072
12,2,14,8,8,2,12,8,13,8,10,4,5,6,3,8,2020-10-21 18:07:46.089
12,8,22,6,9,2,12,2,8,2,7,4,4,8,5,2020-10-21 18:07:46.105
16,4,18,8,9,8,9,6,7,2,4,4,6,8,5,2020-10-21 18:07:46.122
16,8,23,2,9,6,8,6,6,8,4,6,6,2,5,8,2020-10-21 18:07:46.139
16,4,18,2,11,4,8,4,8,3,6,6,2,5,2,2020-10-21 18:07:46.156
17,22,8,11,6,9,6,1,4,3,2,4,8,3,6,2020-10-21 18:07:46.173
19,6,14,4,11,2,8,8,1,6,3,2,4,4,2,4,2020-10-21 18:07:46.189
14,8,15,6,11,7,2,2,2,1,6,2,8,2020-10-21 18:07:46.206
13,4,10,6,12,2,8,6,2,2,2,1,6,1,2,2020-10-21 18:07:46.223
10,16,8,11,8,7,4,2,2,4,2,8,2,4,2020-10-21 18:07:46.240
5,8,11,6,12,2,7,6,2,6,2,4,4,4,4,2020-10-21 18:07:46.255
3,6,11,8,11,2,7,6,4,2,3,2,4,4,8,2020-10-21 18:07:46.272
3,4,19,2,15,4,9,4,4,4,3,4,4,6,6,2020-10-21 18:07:46.289
4,4,27,2,13,6,6,7,8,3,4,7,8,2020-10-21 18:07:46.305
5,2,23,2,12,6,8,8,2,3,3,2,8,8,2020-10-21 18:07:46.323
5,6,23,4,15,7,6,8,6,2,6,2,6,8,2,2020-10-21 18:07:46.339
6,4,24,17,8,9,4,10,4,3,4,2,6,9,6,2020-10-21 18:07:46.356
8,4,16,4,14,2,8,4,9,4,3,4,4,4,9,4,2020-10-21 18:07:46.372
8,6,6,6,16,8,6,5,6,3,2,4,8,8,4,2020-10-21 18:07:46.389
8,4,9,8,15,4,10,2,7,4,4,6,8,7,4,2020-10-21 18:07:46.405
8,2,11,4,10,2,8,2,12,4,4,4,10,4,8,2,2020-10-21 18:07:46.423
7,14,8,7,8,5,8,9,4,6,13,2,7,8,2020-10-21 18:07:46.439
5,4,14,4,5,2,6,6,9,8,5,2,12,6,8,8,2020-10-21 18:07:46.456
6,15,6,2,7,6,13,11,2,19,8,8,2020-10-21 18:07:46.473
5,8,9,6,8,6,7,4,11,8,12,17,8,9,6,2020-10-21 18:07:46.490
9,8,10,4,9,9,4,7,4,20,8,18,8,9,2020-10-21 18:07:46.506
11,6,10,4,8,4,13,6,10,4,23,6,19,4,10,8,2020-10-21 18:07:46.523
16,4,11,9,8,11,4,11,4,29,4,28,2,13,2,2020-10-21 18:07:46.540
14,8,12,4,14,6,13,4,11,24,2,25,2,13,4,2020-10-21 18:07:46.556
18,18,16,2,21,2,11,2,28,2,28,4,14,2020-10-21 18:07:46.573
14,4,18,17,21,6,10,4,20,6,26,15,2020-10-21 18:07:46.590
12,8,17,4,19,6,18,6,8,2,16,2,23,8,14,8,2020-10-21 18:07:46.606
8,17,6,24,25,4,6,6,11,4,18,2,11,8,2020-10-21 18:07:46.623
11,4,19,2,21,6,24,11,14,16,11,8,2020-10-21 18:07:46.640
13,2,17,8,22,8,20,11,4,8,6,11,6,9,2,2020-10-21 18:07:46.657
15,4,17,2,28,8,26,8,10,6,11,6,12,4,9,8,2020-10-21 18:07:46.673
19,16,8,33,4,40,4,12,4,13,11,7,8,2020-10-21 18:07:46.690
28,4,18,4,30,8,49,13,11,8,7,8,7,6,2020-10-21 18:07:46.706
25,6,20,6,27,46,8,8,6,9,2,6,8,9,4,2020-10-21 18:07:46.724
24,20,2,23,46,2,7,8,8,6,6,4,11,6,2020-10-21 18:07:46.739
21,20,16,4,38,8,9,4,6,4,4,12,4,2020-10-21 18:07:46.757
18,2,16,6,15,2,38,2,8,2,5,8,4,8,18,8,2020-10-21 18:07:46.774
15,15,2,17,4,33,10,4,6,2,5,17,2,2020-10-21 18:07:46.790
17,10,2,17,39,6,9,5,8,5,2,15,8,2020-10-21 18:07:46.806
14,2,7,8,17,36,4,8,8,5,4,6,2,17,2,2020-10-21 18:07:46.823
19,4,7,2,17,6,34,2,8,4,8,8,2,19,4,2020-10-21 18:07:46.840
20,9,4,13,2,23,2,7,2,4,6,8,8,22,2020-10-21 18:07:46.856
13,6,7,6,8,13,4,4,4,5,2,7,4,21,8,2020-10-21 18:07:46.873
25,2,15,6,11,4,7,6,6,2,8,8,11,2,24,4,2020-10-21 18:07:46.890
23,2,23,4,10,6,6,4,8,6,9,4,29,2,2020-10-21 18:07:46.906
19,6,27,9,8,7,2,5,8,8,6,9,6,25,8,2020-10-21 18:07:46.923
19,30,4,12,2,4,8,6,2,14,20,26,6,2020-10-21 18:07:46.940
25,8,35,8,14,4,4,6,6,6,13,6,19,8,28,2,2020-10-21 18:07:46.957
24,32,8,10,4,7,6,9,4,11,2,17,32,4,2020-10-21 18:07:46.974
26,25,6,10,2,8,9,13,8,19,2,27,2,2020-10-21 18:07:46.990
27,6,35,2,14,6,6,10,6,12,4,18,8,31,8,2020-10-21 18:07:47.006
28,2,37,2,13,4,7,8,15,4,7,9,4,38,4,2020-10-21 18:07:47.024
25,4,38,4,12,6,9,24,8,11,13,4,36,2020-10-21 18:07:47.040
26,4,41,2,14,4,6,6,21,8,10,11,4,28,6,2020-10-21 18:07:47.057
31,4,44,8,15,6,2,22,2,7,2,10,4,31,8,2020-10-21 18:07:47.074
36,33,6,16,10,4,23,8,6,9,6,26,4,2020-10-21 18:07:47.091
35,4,30,6,12,6,11,22,4,8,4,7,4,10,2,2020-10-21 18:07:47.106
34,6,26,6,14,4,10,6,13,6,5,8,4,4,12,6,2020-10-21 18:07:47.123
25,18,15,4,10,4,14,2,11,6,18,6,12,4,2020-10-21 18:07:47.140
20,4,21,4,17,6,10,6,13,6,13,2,20,6,4,2020-10-21 18:07:47.157
12,6,20,12,8,6,4,11,4,11,6,19,4,6,2020-10-21 18:07:47.173
14,16,4,15,5,6,12,8,21,2,5,2020-10-21 18:07:47.190
10,6,21,4,16,4,6,6,6,11,4,20,4,3,6,2020-10-21 18:07:47.206
7,26,6,16,8,6,2,2,8,5,8,7,3,8,2020-10-21 18:07:47.223
5,2,22,4,15,4,5,8,5,6,4,8,4,6,3,8,2020-10-21 18:07:47.240
5,6,20,6,14,4,8,4,5,2,5,4,8,3,8,2020-10-21 18:07:47.257
4,4,20,4,12,6,11,5,6,3,8,2,4,8,2020-10-21 18:07:47.274
4,8,16,7,2,12,6,8,4,4,2,5,2020-10-21 18:07:47.290
5,11,8,4,12,4,8,2,4,4,3,8,5,2020-10-21 18:07:47.307
5,10,8,5,4,13,6,6,2,3,8,6,4,5,2020-10-21 18:07:47.324
5,4,12,8,8,2,13,6,8,4,8,8,6,5,4,2020-10-21 18:07:47.341
4,12,4,8,4,10,6,9,9,2,17,2,3,4,2020-10-21 18:07:47.358
4,10,6,10,8,2,9,2,12,4,25,8,2,6,2020-10-21 18:07:47.374
6,16,2,11,8,7,7,4,12,24,4,3,6,2020-10-21 18:07:47.391
6,16,10,4,6,6,7,8,13,22,4,6,2,2020-10-21 18:07:47.407
6,2,14,6,8,4,4,6,8,11,8,20,8,6,6,2020-10-21 18:07:47.423
5,6,14,7,6,4,2,6,8,7,12,4,8,2,2020-10-21 18:07:47.440
5,2,15,8,6,6,2,8,4,2,2,2,4,6,8,2,2020-10-21 18:07:47.457
4,2,9,4,6,8,3,4,8,2,4,3,8,8,2,2020-10-21 18:07:47.473
4,4,19,6,7,6,3,4,3,6,1,4,3,2,6,6,2020-10-21 18:07:47.490
4,2,21,8,8,4,11,8,4,3,6,3,4,5,8,2020-10-21 18:07:47.507
6,6,22,6,9,6,13,4,3,2,4,2,4,4,3,8,2020-10-21 18:07:47.524
9,2,25,4,11,6,15,8,4,4,4,6,3,8,5,2,2020-10-21 18:07:47.540
8,8,26,8,11,2,15,4,4,8,4,2,4,6,4,2020-10-21 18:07:47.557
9,2,17,8,10,14,8,5,8,4,6,4,6,3,2,2020-10-21 18:07:47.574
10,35,2,14,6,7,6,8,7,2,3,8,3,8,2020-10-21 18:07:47.590
10,8,45,13,4,5,2,8,6,8,4,3,8,4,6,2020-10-21 18:07:47.607
8,4,46,6,12,2,4,6,8,8,2,4,6,4,2020-10-21 18:07:47.624
8,2,49,4,11,4,5,7,4,8,8,3,6,6,6,2020-10-21 18:07:47.641
9,8,48,11,4,5,6,7,4,8,8,3,4,6,2020-10-21 18:07:47.657
8,6,30,8,5,2,4,6,4,4,5,4,3,8,6,4,2020-10-21 18:07:47.674
6,26,6,4,6,4,2,4,4,2,6,6,2,2020-10-21 18:07:47.691
7,20,4,7,2,3,2,5,4,8,2,6,5,2,2020-10-21 18:07:47.707
7,16,6,6,4,4,2,5,4,4,2,2,2,5,2,2020-10-21 18:07:47.725
9,2,14,5,8,3,8,5,4,4,3,4,5,8,2020-10-21 18:07:47.741
8,8,11,2,6,2,3,8,4,4,4,4,3,8,4,6,2020-10-21 18:07:47.758
8,8,5,2,5,6,4,8,3,8,5,2,4,2,5,8,2020-10-21 18:07:47.775
9,4,3,2,3,2,4,8,4,4,4,8,4,5,2,2020-10-21 18:07:47.790
8,4,5,6,3,6,5,6,4,8,6,6,4,8,8,2,2020-10-21 18:07:47.807
6,8,7,4,6,6,6,4,4,6,7,8,5,6,7,6,2020-10-21 18:07:47.824
7,4,8,4,6,7,6,8,8,7,4,4,8,8,2,2020-10-21 18:07:47.840
7,4,10,13,8,7,8,11,10,6,5,6,6,2020-10-21 18:07:47.857
5,8,11,8,15,2,7,6,10,2,10,6,5,4,8,2020-10-21 18:07:47.874
9,2,14,2,15,5,4,9,4,10,4,4,2,2020-10-21 18:07:47.891
8,2,13,2,12,2,5,8,11,6,12,4,3,8,2,2,2020-10-21 18:07:47.907
12,6,22,8,14,8,4,2,8,2,14,2,5,4,2,2,2020-10-21 18:07:47.924
12,6,33,6,2,5,6,7,4,17,6,6,2,6,2020-10-21 18:07:47.942
12,6,34,4,4,8,6,2,8,2,17,8,6,6,2,4,2020-10-21 18:07:47.958
9,29,4,9,2,7,8,7,6,16,2,6,2,3,4,2020-10-21 18:07:47.975
6,8,30,4,14,8,6,5,4,13,4,4,6,4,4,2020-10-21 18:07:47.991
2,23,2,14,2,6,6,4,4,10,8,3,6,4,8,2020-10-21 18:07:48.007
1,4,10,8,14,8,7,4,3,2,2,2,4,4,2020-10-21 18:07:48.025
2,4,15,8,14,6,8,6,2,8,4,6,1,8,4,8,2020-10-21 18:07:48.041
3,6,29,2,14,2,7,2,3,6,2,6,3,4,2020-10-21 18:07:48.058
3,4,29,8,8,8,6,8,2,6,5,3,2,4,2020-10-21 18:07:48.075
4,6,33,4,8,2,7,4,4,4,5,6,3,8,1,2,2020-10-21 18:07:48.092
5,4,35,2,8,4,6,3,6,5,4,2,1,8,2020-10-21 18:07:48.108
4,2,29,6,8,6,2,8,3,8,5,4,4,2,2020-10-21 18:07:48.125
3,2,17,4,6,3,4,5,3,6,3,4,3,6,2020-10-21 18:07:48.142
4,2,16,4,4,6,3,8,5,4,3,3,4,3,6,2020-10-21 18:07:48.158
2,8,9,2,3,4,2,8,4,6,2,6,2,2,3,6,2020-10-21 18:07:48.174
2,2,7,6,3,2,2,4,4,3,2,4,2,8,2020-10-21 18:07:48.191
1,8,6,4,3,1,8,3,2,1,2,1,6,2,4,2020-10-21 18:07:48.207
2,8,2,4,8,1,2,2,4,2,2,1,2020-10-21 18:07:48.224
1,6,5,8,5,4,0,8,3,2,8,1,6,1,4,2020-10-21 18:07:48.242
2,6,8,2,5,0,4,2,4,2,8,2,2,2,4,2020-10-21 18:07:48.258
3,4,9,4,6,2,0,8,2,8,2,2,1,8,2,4,2020-10-21 18:07:48.275
6,8,12,8,9,2,0,8,2,8,2,2,2,3,8,2020-10-21 18:07:48.291
7,8,11,12,2,1,6,2,8,1,6,2,3,8,2020-10-21 18:07:48.308
7,2,13,4,15,2,2,1,6,1,2,1,8,3,6,2020-10-21 18:07:48.325
7,15,4,15,4,2,4,3,2,1,6,1,4,3,2020-10-21 18:07:48.342
6,4,15,2,15,2,2,3,8,1,8,1,6,2,8,2020-10-21 18:07:48.358
4,4,11,12,8,2,4,3,8,1,6,2,2,3,2020-10-21 18:07:48.375
3,6,13,4,7,8,1,8,4,1,4,1,8,4,4,2020-10-21 18:07:48.392
5,6,14,17,4,4,2,4,4,2,2,3,8,4,2,2020-10-21 18:07:48.409
4,6,9,8,19,5,3,8,1,6,3,4,4,4,2020-10-21 18:07:48.425
5,2,10,6,18,2,4,8,9,2,3,4,3,8,5,2020-10-21 18:07:48.442
4,12,8,20,6,6,4,14,4,5,2,3,2,3,8,2020-10-21 18:07:48.458
4,11,23,2,6,8,15,4,5,4,3,6,4,2020-10-21 18:07:48.474
3,6,8,8,10,6,5,6,16,6,5,8,3,2,6,2,2020-10-21 18:07:48.491
4,12,6,12,2,5,8,16,8,6,4,4,2,7,8,2020-10-21 18:07:48.508
3,13,6,13,6,2,10,8,5,2,3,4,9,2020-10-21 18:07:48.524
4,2,13,6,11,4,8,5,8,5,3,8,11,6,2020-10-21 18:07:48.541
5,2,12,8,8,5,4,8,4,6,8,4,6,10,4,2020-10-21 18:07:48.558
4,13,8,7,6,3,8,8,6,5,8,3,8,12,2,2020-10-21 18:07:48.575
4,4,11,4,4,2,8,7,4,5,3,2,10,2020-10-21 18:07:48.592
7,2,11,2,2,8,2,6,8,6,4,4,3,6,10,2020-10-21 18:07:48.608
