Raw EMG - Pod01,Raw EMG - Pod02,Raw EMG - Pod03,Raw EMG - Pod04,Raw EMG - Pod05,Raw EMG - Pod06,Raw EMG - Pod07,Raw EMG - Pod08,Timestamp
0,0,0,0,0,0,0,-1,2020-10-21 18:07:12.268
0,0,0,0,0,0,0,-1,2020-10-21 18:07:12.284
0,0,0,0,0,0,0,-1,2020-10-21 18:07:12.301
0,0,0,0,0,0,0,-1,2020-10-21 18:07:12.318
0,0,0,0,0,0,0,-2,2020-10-21 18:07:12.335
0,0,0,0,0,0,0,-2,2020-10-21 18:07:12.352
0,0,0,0,0,0,0,-3,2020-10-21 18:07:12.368
7,-3,-1,0,0,0,-1,-3,2020-10-21 18:07:12.384
-5,1,0,-1,-2,-4,0,-3,2020-10-21 18:07:12.402
1,0,-2,0,0,0,-1,2,2020-10-21 18:07:12.419
1,0,-2,0,0,0,-1,-4,2020-10-21 18:07:12.435
-8,-2,-2,0,1,1,0,1,2020-10-21 18:07:12.452
1,0,1,1,1,-1,0,-3,2020-10-21 18:07:12.469
-1,1,0,0,-2,0,-4,3,2020-10-21 18:07:12.485
-1,1,0,0,-2,0,-4,-3,2020-10-21 18:07:12.502
-1,1,0,0,-2,0,-4,-1,2020-10-21 18:07:12.519
2,-6,-2,0,1,0,1,2,2020-10-21 18:07:12.536
-15,-4,0,2,2,1,-2,-1,2020-10-21 18:07:12.552
4,0,-2,-2,-3,0,-1,1,2020-10-21 18:07:12.569
-3,0,-1,-1,-1,-1,-2,-1,2020-10-21 18:07:12.585
4,-3,-1,-2,0,-1,1,6,2020-10-21 18:07:12.603
-5,-3,-2,-2,-3,-2,-1,-3,2020-10-21 18:07:12.619
-10,-1,2,0,-1,-1,1,-3,2020-10-21 18:07:12.636
6,-1,1,-3,0,-1,0,-2,2020-10-21 18:07:12.653
0,-2,-1,1,1,0,-1,-3,2020-10-21 18:07:12.669
1,1,-2,0,0,-1,0,-2,2020-10-21 18:07:12.685
-2,-1,-1,-1,-2,-1,0,-1,2020-10-21 18:07:12.702
6,0,-2,-3,-1,-1,2,-5,2020-10-21 18:07:12.719
-6,-4,0,-1,-1,-1,-1,-3,2020-10-21 18:07:12.735
-4,-2,-1,1,0,-1,-2,-1,2020-10-21 18:07:12.753
-2,2,-1,-1,-1,0,0,2,2020-10-21 18:07:12.769
-4,0,-1,0,1,-1,-4,1,2020-10-21 18:07:12.785
-8,-1,1,-1,-1,-2,0,-2,2020-10-21 18:07:12.803
-3,-1,-1,-2,0,-1,1,-1,2020-10-21 18:07:12.819
-2,-2,0,-1,-3,-3,-3,-3,2020-10-21 18:07:12.836
-6,-1,0,-1,0,0,-1,1,2020-10-21 18:07:12.853
7,1,-1,1,0,0,0,-3,2020-10-21 18:07:12.869
1,0,-1,0,0,2,0,-2,2020-10-21 18:07:12.885
-4,-2,0,0,-1,0,1,-1,2020-10-21 18:07:12.902
-8,-4,-1,-2,-4,-2,-2,1,2020-10-21 18:07:12.919
-9,-7,-2,0,0,-2,1,0,2020-10-21 18:07:12.935
-1,-1,0,0,-3,0,-3,-1,2020-10-21 18:07:12.952
10,0,0,3,-2,-2,1,-4,2020-10-21 18:07:12.969
1,0,-2,0,-1,-4,-4,-4,2020-10-21 18:07:12.985
-7,-5,-3,-1,-1,-2,0,2,2020-10-21 18:07:13.003
-3,-2,-2,1,-1,-3,0,0,2020-10-21 18:07:13.019
1,-1,-3,-3,0,0,0,0,2020-10-21 18:07:13.036
-5,-2,1,0,0,0,0,-4,2020-10-21 18:07:13.053
-3,0,1,0,0,0,-1,2,2020-10-21 18:07:13.070
-4,-2,-2,-1,-2,-2,-2,-2,2020-10-21 18:07:13.086
-11,-3,-1,-1,-1,0,-2,-1,2020-10-21 18:07:13.103
7,4,1,1,1,3,2,1,2020-10-21 18:07:13.119
-1,1,1,-2,1,0,-1,1,2020-10-21 18:07:13.135
0,1,-1,0,-2,-2,-2,-5,2020-10-21 18:07:13.152
-5,-2,-1,0,0,-1,-1,1,2020-10-21 18:07:13.169
10,-2,-1,-1,-2,-3,0,-1,2020-10-21 18:07:13.185
-8,-3,-1,-1,-2,-1,-3,-1,2020-10-21 18:07:13.202
0,0,-2,0,0,-1,0,-3,2020-10-21 18:07:13.219
-1,-1,0,-1,-1,1,1,-1,2020-10-21 18:07:13.236
9,-1,-2,-1,0,-2,0,-1,2020-10-21 18:07:13.253
-7,4,0,-1,-1,-1,-2,-9,2020-10-21 18:07:13.269
-1,1,-1,0,0,0,-1,0,2020-10-21 18:07:13.286
-3,1,-1,-2,-2,0,0,0,2020-10-21 18:07:13.303
-1,-4,1,0,1,-2,-1,-4,2020-10-21 18:07:13.320
-4,1,0,2,-1,-1,-1,-2,2020-10-21 18:07:13.336
2,-1,-2,0,0,-2,-1,2,2020-10-21 18:07:13.353
-5,-3,-1,-1,-1,-1,0,1,2020-10-21 18:07:13.370
-8,-3,-2,0,-4,-4,-5,1,2020-10-21 18:07:13.386
-2,-2,0,0,0,-2,0,2,2020-10-21 18:07:13.403
7,7,0,-1,3,-1,-1,2,2020-10-21 18:07:13.420
-6,-5,-1,-1,-3,-1,0,0,2020-10-21 18:07:13.437
-4,-2,-1,-1,0,0,-1,-2,2020-10-21 18:07:13.453
8,0,-2,-1,-2,0,0,1,2020-10-21 18:07:13.470
-1,0,-1,-1,-2,0,1,0,2020-10-21 18:07:13.486
2,0,-1,1,0,2,-1,-2,2020-10-21 18:07:13.503
-3,-2,-1,0,-1,0,2,-1,2020-10-21 18:07:13.519
14,1,-1,-1,-1,0,-1,2,2020-10-21 18:07:13.536
2,-2,-1,2,1,-2,-1,0,2020-10-21 18:07:13.553
-2,2,0,0,1,-1,-1,-2,2020-10-21 18:07:13.570
2,-1,-1,0,0,-1,-1,-1,2020-10-21 18:07:13.586
-4,-3,1,0,1,-1,1,1,2020-10-21 18:07:13.603
-11,-1,1,0,0,1,0,1,2020-10-21 18:07:13.620
-4,0,0,-2,-1,-2,0,2,2020-10-21 18:07:13.636
8,1,-2,-1,-2,-1,-2,0,2020-10-21 18:07:13.653
-3,-4,-1,0,0,0,-2,0,2020-10-21 18:07:13.670
-13,-3,0,0,-2,-1,-1,-1,2020-10-21 18:07:13.686
-1,-1,-2,-3,0,-1,-1,0,2020-10-21 18:07:13.703
-1,-1,-2,-2,0,0,0,-1,2020-10-21 18:07:13.720
0,-7,-1,0,0,1,-1,-2,2020-10-21 18:07:13.737
3,0,-2,-1,0,0,1,-3,2020-10-21 18:07:13.753
2,-1,0,-1,-1,0,-1,2,2020-10-21 18:07:13.770
3,1,-1,-1,-1,-1,-2,1,2020-10-21 18:07:13.786
-2,0,-1,-1,-3,-2,-1,0,2020-10-21 18:07:13.804
0,0,0,-1,-1,-1,0,-2,2020-10-21 18:07:13.820
-3,-1,-1,-1,-1,0,0,-2,2020-10-21 18:07:13.837
-1,1,0,0,-2,0,1,1,2020-10-21 18:07:13.854
-10,-1,-2,-5,-4,0,-3,1,2020-10-21 18:07:13.870
8,-1,-1,-2,-1,-3,0,1,2020-10-21 18:07:13.886
2,0,1,0,0,0,0,0,2020-10-21 18:07:13.903
-3,-1,0,2,0,0,0,2,2020-10-21 18:07:13.920
-2,1,-4,-2,-1,-2,-2,1,2020-10-21 18:07:13.936
3,3,-1,-2,-1,0,-1,-3,2020-10-21 18:07:13.953
3,5,0,1,0,0,-1,-1,2020-10-21 18:07:13.970
-4,-2,2,-1,1,1,1,-3,2020-10-21 18:07:13.986
2,2,-1,0,0,-2,0,0,2020-10-21 18:07:14.003
-10,-2,-1,1,0,0,-1,-5,2020-10-21 18:07:14.020
4,2,0,1,-2,-1,-1,1,2020-10-21 18:07:14.037
-4,0,1,-1,0,-2,0,-1,2020-10-21 18:07:14.054
-4,-2,-1,-3,0,0,-1,0,2020-10-21 18:07:14.070
8,0,-1,-2,-3,-2,0,0,2020-10-21 18:07:14.087
-2,-3,-1,0,-1,0,-1,3,2020-10-21 18:07:14.104
2,-1,-2,-5,-3,0,-2,1,2020-10-21 18:07:14.120
-6,-2,0,0,-1,-1,-2,-2,2020-10-21 18:07:14.137
2,0,1,0,1,0,0,0,2020-10-21 18:07:14.154
1,-2,0,0,1,1,0,-3,2020-10-21 18:07:14.171
1,0,-3,-1,-3,-2,-1,-2,2020-10-21 18:07:14.187
1,0,-1,-1,0,-1,-2,-3,2020-10-21 18:07:14.204
3,1,0,0,0,-2,1,0,2020-10-21 18:07:14.221
5,-2,-1,-2,0,-1,0,1,2020-10-21 18:07:14.238
-11,-4,1,2,2,0,1,0,2020-10-21 18:07:14.253
4,-2,-1,0,0,-1,0,0,2020-10-21 18:07:14.270
0,-1,-2,-1,-1,-3,-2,0,2020-10-21 18:07:14.286
-2,0,0,-2,-2,1,3,-2,2020-10-21 18:07:14.303
-1,1,-1,0,-2,-1,-1,-1,2020-10-21 18:07:14.320
5,-1,0,0,0,-2,-2,0,2020-10-21 18:07:14.337
5,0,0,0,-1,0,1,-5,2020-10-21 18:07:14.354
-4,-4,-2,-1,-1,0,1,-1,2020-10-21 18:07:14.370
-11,-3,0,0,-2,-1,-1,1,2020-10-21 18:07:14.387
0,-1,-1,0,-2,-1,-1,1,2020-10-21 18:07:14.404
1,1,1,-1,0,-1,-2,-2,2020-10-21 18:07:14.421
1,0,0,1,0,-2,-1,2,2020-10-21 18:07:14.437
4,0,-1,0,-2,-1,-2,-3,2020-10-21 18:07:14.454
-13,-4,-4,-1,-2,-1,0,1,2020-10-21 18:07:14.470
-4,2,-3,0,-1,-1,-1,-4,2020-10-21 18:07:14.487
4,0,0,0,1,0,1,2,2020-10-21 18:07:14.504
-1,-1,0,1,-1,0,0,1,2020-10-21 18:07:14.521
-2,4,0,-3,-1,0,-2,-1,2020-10-21 18:07:14.538
0,1,0,0,-1,-1,-1,-2,2020-10-21 18:07:14.554
4,-1,-2,-2,-3,0,-3,0,2020-10-21 18:07:14.571
3,-1,0,0,1,0,1,-1,2020-10-21 18:07:14.587
-10,-6,-1,0,-2,-3,-2,1,2020-10-21 18:07:14.605
-3,-1,1,-1,-1,-1,1,0,2020-10-21 18:07:14.622
4,1,-1,-1,-1,1,1,2,2020-10-21 18:07:14.638
2,-1,-1,-2,0,0,-1,2,2020-10-21 18:07:14.654
-1,-1,1,-2,0,0,2,-1,2020-10-21 18:07:14.671
0,-1,-4,-1,0,0,-1,0,2020-10-21 18:07:14.687
-4,2,0,0,-1,0,0,-3,2020-10-21 18:07:14.705
5,-1,1,-2,-1,0,0,1,2020-10-21 18:07:14.721
1,1,-1,-1,0,-1,-1,-2,2020-10-21 18:07:14.738
0,3,-1,0,0,-2,0,2,2020-10-21 18:07:14.755
0,-2,0,-2,-1,-1,1,-3,2020-10-21 18:07:14.771
-2,-1,0,-1,-2,-1,-1,-1,2020-10-21 18:07:14.787
2,-2,-2,3,0,0,-2,0,2020-10-21 18:07:14.804
-8,-5,0,-1,-1,-2,-2,-2,2020-10-21 18:07:14.821
5,0,0,-1,-2,-1,1,1,2020-10-21 18:07:14.837
-3,-3,0,-2,0,0,1,-2,2020-10-21 18:07:14.855
-4,-1,0,0,-1,-1,1,1,2020-10-21 18:07:14.872
-2,-2,0,4,1,-1,0,-3,2020-10-21 18:07:14.888
2,-2,-2,-1,0,-1,-2,0,2020-10-21 18:07:14.905
1,2,1,0,1,0,-1,-1,2020-10-21 18:07:14.922
-4,-3,-1,-1,-2,-2,-1,-1,2020-10-21 18:07:14.937
1,1,0,-3,-4,-1,-2,0,2020-10-21 18:07:14.954
1,-2,-1,0,0,-1,-1,2,2020-10-21 18:07:14.971
5,1,-1,0,-1,-3,0,2,2020-10-21 18:07:14.987
-5,0,-1,0,-2,0,-2,-2,2020-10-21 18:07:15.004
4,-4,-2,-1,-1,-1,-1,-2,2020-10-21 18:07:15.021
-2,2,-2,-3,-1,1,2,-2,2020-10-21 18:07:15.038
-4,-3,-1,0,0,0,-2,-1,2020-10-21 18:07:15.055
7,3,0,1,0,-1,0,0,2020-10-21 18:07:15.071
11,-1,-2,-1,-1,-1,0,0,2020-10-21 18:07:15.087
11,-1,-2,-1,-1,-1,0,2,2020-10-21 18:07:15.105
-1,0,0,-1,-2,1,-1,-1,2020-10-21 18:07:15.121
-2,1,0,1,-1,-1,-1,-2,2020-10-21 18:07:15.138
-15,-1,-1,2,0,-2,-2,0,2020-10-21 18:07:15.155
2,-1,-2,-3,0,-1,1,-1,2020-10-21 18:07:15.172
-3,-2,1,2,0,0,0,1,2020-10-21 18:07:15.188
1,-2,-2,1,0,-1,-1,-1,2020-10-21 18:07:15.205
5,-1,-2,-1,-2,-1,0,-1,2020-10-21 18:07:15.222
-3,-1,-1,-1,1,0,-1,1,2020-10-21 18:07:15.238
6,-1,0,-2,-2,-1,0,-2,2020-10-21 18:07:15.255
-2,-1,-1,-1,0,0,0,0,2020-10-21 18:07:15.272
1,1,-1,-2,-2,-1,-1,-2,2020-10-21 18:07:15.289
-1,4,0,-1,1,-1,-2,2,2020-10-21 18:07:15.305
-3,-2,0,1,-1,-1,-1,-1,2020-10-21 18:07:15.322
0,-2,0,-1,-1,-1,0,-1,2020-10-21 18:07:15.339
-1,-2,0,-1,-1,-1,0,-2,2020-10-21 18:07:15.356
-7,0,0,0,0,-1,-1,-2,2020-10-21 18:07:15.371
-2,-1,-1,0,0,-1,0,0,2020-10-21 18:07:15.389
-10,-3,-2,-1,0,-2,-3,-2,2020-10-21 18:07:15.405
3,-1,0,-1,1,0,0,0,2020-10-21 18:07:15.421
-5,-1,0,-1,0,-1,-1,0,2020-10-21 18:07:15.438
2,5,-1,-1,-2,1,0,-5,2020-10-21 18:07:15.455
-2,-1,-2,-2,-3,-2,0,2,2020-10-21 18:07:15.471
3,0,-2,-3,-2,0,-1,2,2020-10-21 18:07:15.488
2,-1,-1,0,-2,0,-1,-1,2020-10-21 18:07:15.504
3,2,-2,1,0,0,-2,0,2020-10-21 18:07:15.522
0,3,-2,1,0,-1,0,0,2020-10-21 18:07:15.538
-6,-2,-1,1,0,-3,4,1,2020-10-21 18:07:15.555
0,-1,0,0,0,-2,-4,-1,2020-10-21 18:07:15.572
-2,0,-1,-1,-1,-1,-1,-1,2020-10-21 18:07:15.589
6,1,0,-3,-4,0,0,-2,2020-10-21 18:07:15.605
-3,-1,0,-1,-1,-3,-1,-4,2020-10-21 18:07:15.622
3,-1,-2,-2,1,1,-1,0,2020-10-21 18:07:15.639
3,-1,-2,-2,1,1,-1,-2,2020-10-21 18:07:15.655
2,-1,-1,0,-1,0,0,0,2020-10-21 18:07:15.672
-2,-2,0,1,1,0,0,1,2020-10-21 18:07:15.689
-1,-1,-1,2,-1,-1,-1,-2,2020-10-21 18:07:15.705
1,-1,-1,0,2,-1,-2,0,2020-10-21 18:07:15.723
-3,-2,-2,-1,-1,0,-3,2,2020-10-21 18:07:15.739
1,4,0,-1,-1,-3,0,1,2020-10-21 18:07:15.756
-3,-3,-1,-1,-2,-1,-1,0,2020-10-21 18:07:15.773
0,-1,0,-3,-3,0,-1,0,2020-10-21 18:07:15.788
-6,1,0,-2,1,-1,0,0,2020-10-21 18:07:15.805
0,-1,-1,0,-2,-3,1,1,2020-10-21 18:07:15.822
1,0,-2,0,-1,-2,0,-1,2020-10-21 18:07:15.839
3,2,-3,-1,-2,-1,-2,-1,2020-10-21 18:07:15.855
2,-2,-1,0,-1,1,-2,2,2020-10-21 18:07:15.872
7,-1,0,0,0,1,1,-2,2020-10-21 18:07:15.889
0,0,1,1,-1,-1,-1,2,2020-10-21 18:07:15.905
3,-3,0,-2,-1,-1,-2,2,2020-10-21 18:07:15.922
3,-3,-2,-2,-2,-1,-1,-2,2020-10-21 18:07:15.939
9,-3,-2,-1,-3,-2,1,-3,2020-10-21 18:07:15.956
-1,-2,-1,-2,-3,-1,-1,1,2020-10-21 18:07:15.973
-3,-1,0,0,1,1,1,-2,2020-10-21 18:07:15.989
-3,0,0,1,-1,-1,0,-2,2020-10-21 18:07:16.005
1,0,0,-1,0,-1,0,-3,2020-10-21 18:07:16.023
1,0,0,-1,0,-1,0,0,2020-10-21 18:07:16.039
-5,-1,-1,0,0,-1,-1,0,2020-10-21 18:07:16.056
1,3,0,1,0,-1,-3,-2,2020-10-21 18:07:16.073
3,0,-1,-2,1,0,-1,-4,2020-10-21 18:07:16.089
-6,-3,-1,0,-3,-1,-3,2,2020-10-21 18:07:16.106
-1,-1,0,-2,-2,0,-2,2,2020-10-21 18:07:16.123
-4,1,-1,1,-1,-1,-2,0,2020-10-21 18:07:16.140
1,0,-1,-1,-2,0,-1,1,2020-10-21 18:07:16.156
-4,-2,-1,-2,0,2,0,-1,2020-10-21 18:07:16.172
-9,-4,-2,0,-2,-1,0,-2,2020-10-21 18:07:16.189
3,-2,-2,-2,-1,0,-1,0,2020-10-21 18:07:16.205
6,1,-1,0,-1,-1,1,-2,2020-10-21 18:07:16.222
0,-3,0,0,0,0,2,-1,2020-10-21 18:07:16.239
-3,-2,1,0,-2,-2,2,0,2020-10-21 18:07:16.256
-1,-2,-1,-2,-1,-1,1,0,2020-10-21 18:07:16.273
-5,0,-1,-3,-1,0,-1,2,2020-10-21 18:07:16.289
-3,-2,-2,0,0,-2,-2,2,2020-10-21 18:07:16.305
-1,2,0,-1,-1,0,-1,-2,2020-10-21 18:07:16.323
-1,-1,-1,0,-1,-1,0,1,2020-10-21 18:07:16.339
-2,-2,-1,0,-1,-1,0,1,2020-10-21 18:07:16.356
8,-3,0,-1,-3,0,-1,-1,2020-10-21 18:07:16.373
-2,-1,-1,-1,-1,0,0,-1,2020-10-21 18:07:16.390
0,1,0,-2,-1,-1,-1,-1,2020-10-21 18:07:16.406
0,1,0,-2,-1,-1,-1,0,2020-10-21 18:07:16.423
-6,0,0,-3,-1,0,-1,-1,2020-10-21 18:07:16.440
4,-1,-1,1,0,-1,-1,-4,2020-10-21 18:07:16.457
-1,-1,1,1,1,0,0,0,2020-10-21 18:07:16.473
2,1,3,0,-1,-1,0,-1,2020-10-21 18:07:16.490
-2,-2,-1,-1,-1,0,-1,-1,2020-10-21 18:07:16.506
5,-1,-2,-1,-1,-1,0,0,2020-10-21 18:07:16.523
0,-2,-2,-1,-1,-1,0,0,2020-10-21 18:07:16.540
1,-2,0,1,-1,0,-1,-1,2020-10-21 18:07:16.556
-8,-3,0,-2,0,-1,-1,-8,2020-10-21 18:07:16.573
-1,-3,-1,0,-1,-1,1,3,2020-10-21 18:07:16.589
-2,0,0,-5,-2,-1,-1,1,2020-10-21 18:07:16.606
-4,-3,0,-1,1,0,-1,0,2020-10-21 18:07:16.623
3,1,0,-3,-2,-2,0,-2,2020-10-21 18:07:16.640
2,0,-1,-1,-1,-2,0,4,2020-10-21 18:07:16.656
-4,2,0,0,-1,0,-1,2,2020-10-21 18:07:16.673
-13,-5,-2,1,0,-1,-2,-2,2020-10-21 18:07:16.690
12,2,-2,0,0,-1,-2,0,2020-10-21 18:07:16.706
2,0,-1,-1,-2,0,-1,0,2020-10-21 18:07:16.723
-2,-1,0,2,1,1,0,-1,2020-10-21 18:07:16.740
-5,-1,-2,0,-1,0,0,0,2020-10-21 18:07:16.757
8,0,-1,1,0,-1,0,0,2020-10-21 18:07:16.773
-2,-1,0,0,-1,-1,-1,-3,2020-10-21 18:07:16.790
1,5,1,0,-2,-2,-1,-6,2020-10-21 18:07:16.807
3,2,0,2,0,0,0,-1,2020-10-21 18:07:16.824
1,0,0,0,0,-1,2,1,2020-10-21 18:07:16.840
2,-1,1,-1,-4,-3,-1,-2,2020-10-21 18:07:16.857
3,0,0,-1,-1,1,0,0,2020-10-21 18:07:16.873
0,-2,-3,-3,0,-2,-1,-2,2020-10-21 18:07:16.890
-5,-2,-1,-1,0,-2,-2,2,2020-10-21 18:07:16.906
-6,-2,-2,-2,-2,-1,-2,-2,2020-10-21 18:07:16.923
1,4,-2,-1,1,-1,-2,0,2020-10-21 18:07:16.940
2,0,-1,0,0,-1,1,-1,2020-10-21 18:07:16.957
-7,2,1,0,-1,-1,-1,-2,2020-10-21 18:07:16.974
0,-2,-1,1,0,1,0,2,2020-10-21 18:07:16.990
-3,1,-1,0,-1,-3,0,0,2020-10-21 18:07:17.007
2,-1,0,-1,0,1,1,0,2020-10-21 18:07:17.024
1,-3,-2,0,1,0,-1,-2,2020-10-21 18:07:17.041
0,0,-3,0,-1,0,0,-2,2020-10-21 18:07:17.057
-6,-1,-1,0,-1,-1,-1,1,2020-10-21 18:07:17.074
-2,-1,-2,-1,-1,0,-1,-3,2020-10-21 18:07:17.091
6,0,-2,0,-1,-1,1,2,2020-10-21 18:07:17.107
5,1,-2,-2,-1,-1,-3,-1,2020-10-21 18:07:17.124
0,-2,-1,-1,-1,-1,0,-1,2020-10-21 18:07:17.141
-2,-3,0,1,0,0,-2,0,2020-10-21 18:07:17.157
-3,-3,1,0,-1,0,-1,-1,2020-10-21 18:07:17.173
-2,3,2,-1,0,1,0,-2,2020-10-21 18:07:17.190
-6,-2,0,-1,-1,-1,-1,0,2020-10-21 18:07:17.206
7,0,-1,1,0,-1,-2,-1,2020-10-21 18:07:17.223
10,1,-1,-1,-2,-2,-3,0,2020-10-21 18:07:17.240
10,1,-1,-1,-2,-2,-3,-2,2020-10-21 18:07:17.257
-1,0,-2,-1,-1,-2,2,0,2020-10-21 18:07:17.274
-3,-1,-2,-1,-1,1,-1,0,2020-10-21 18:07:17.291
1,0,-2,-1,-1,0,-1,-1,2020-10-21 18:07:17.307
0,-1,0,1,0,-2,-1,-3,2020-10-21 18:07:17.324
-2,-1,0,0,0,-2,0,-2,2020-10-21 18:07:17.341
0,0,0,-2,-2,-2,0,-1,2020-10-21 18:07:17.358
0,1,0,-1,-2,-1,-1,-3,2020-10-21 18:07:17.374
0,-1,-1,-3,-1,-1,1,1,2020-10-21 18:07:17.391
-1,-1,0,0,-1,0,0,-2,2020-10-21 18:07:17.407
-2,-1,-1,0,0,0,-1,-4,2020-10-21 18:07:17.424
-6,-4,0,0,0,-1,-1,-1,2020-10-21 18:07:17.441
-1,-1,1,-4,-2,-2,-1,0,2020-10-21 18:07:17.458
2,-1,-3,1,0,0,-1,3,2020-10-21 18:07:17.474
-4,-1,-1,-1,1,0,-1,0,2020-10-21 18:07:17.491
0,-1,-1,0,1,0,0,-3,2020-10-21 18:07:17.508
-4,-1,0,0,1,-1,-2,1,2020-10-21 18:07:17.525
-4,-1,-1,0,-2,-1,-2,-1,2020-10-21 18:07:17.540
0,2,-2,-2,-1,-2,0,0,2020-10-21 18:07:17.557
0,0,1,-1,-2,0,-1,-2,2020-10-21 18:07:17.574
-1,-1,-2,0,0,0,2,-2,2020-10-21 18:07:17.590
1,0,-1,0,-1,0,0,-1,2020-10-21 18:07:17.607
-7,0,0,1,1,-1,-1,2,2020-10-21 18:07:17.624
-1,-1,0,0,-1,-2,0,1,2020-10-21 18:07:17.641
0,0,-1,-2,0,-1,-2,-2,2020-10-21 18:07:17.657
3,3,-2,-1,-1,0,-1,-1,2020-10-21 18:07:17.674
-6,-3,1,-1,0,1,0,-1,2020-10-21 18:07:17.691
-6,-3,1,-1,0,1,0,-2,2020-10-21 18:07:17.707
0,0,0,-1,-2,-1,0,-2,2020-10-21 18:07:17.725
2,1,0,-1,0,1,1,1,2020-10-21 18:07:17.741
2,1,-2,-1,-1,0,0,1,2020-10-21 18:07:17.758
-1,-2,0,1,-1,0,-2,-2,2020-10-21 18:07:17.775
3,-1,1,0,2,1,-1,-1,2020-10-21 18:07:17.791
-3,-1,-1,-1,-1,-1,-1,-1,2020-10-21 18:07:17.808
-1,-1,-1,0,-1,-1,-1,-1,2020-10-21 18:07:17.825
-2,-1,-1,-1,-2,0,-1,-1,2020-10-21 18:07:17.841
1,0,-1,-1,0,-1,1,0,2020-10-21 18:07:17.858
-1,-1,-1,2,-1,-2,-1,-2,2020-10-21 18:07:17.875
-2,-1,0,-1,0,-1,-3,0,2020-10-21 18:07:17.892
-2,-3,-1,0,-1,-1,0,1,2020-10-21 18:07:17.908
-2,0,0,-1,-1,-1,0,1,2020-10-21 18:07:17.924
-1,-4,-1,-1,-1,-1,0,-1,2020-10-21 18:07:17.941
2,-1,0,0,0,-1,-1,-1,2020-10-21 18:07:17.958
5,-2,-2,-1,-1,-1,1,-3,2020-10-21 18:07:17.974
0,2,-1,-1,-1,0,-1,0,2020-10-21 18:07:17.991
0,0,0,-1,-1,0,1,-1,2020-10-21 18:07:18.007
-3,-1,-1,-1,0,0,-3,0,2020-10-21 18:07:18.025
0,0,-1,-1,0,-3,-1,-3,2020-10-21 18:07:18.042
-4,-1,-1,0,-2,-1,-1,0,2020-10-21 18:07:18.058
-2,-2,-1,-1,0,-1,-2,0,2020-10-21 18:07:18.075
-3,0,0,0,-1,0,0,0,2020-10-21 18:07:18.092
-1,-1,-1,0,0,0,-2,-1,2020-10-21 18:07:18.108
-3,0,0,-1,0,0,-2,-3,2020-10-21 18:07:18.125
-2,-1,1,-1,0,0,0,0,2020-10-21 18:07:18.142
-2,0,-3,0,0,-1,-1,0,2020-10-21 18:07:18.159
2,-2,1,0,-2,0,1,3,2020-10-21 18:07:18.174
-1,-1,1,1,0,-1,1,-2,2020-10-21 18:07:18.191
-1,-1,-2,-2,-2,-2,-1,-5,2020-10-21 18:07:18.208
1,-1,-1,0,-3,-2,0,-1,2020-10-21 18:07:18.225
-7,3,1,0,1,-1,0,0,2020-10-21 18:07:18.242
5,-1,-2,-1,0,-1,1,0,2020-10-21 18:07:18.258
-3,-2,0,1,-1,2,-2,2,2020-10-21 18:07:18.275
-1,-1,-2,-6,-2,-1,-1,0,2020-10-21 18:07:18.292
-1,1,0,-1,0,-1,-2,0,2020-10-21 18:07:18.308
-26,-1,-1,-2,-2,0,0,-1,2020-10-21 18:07:18.325
6,1,-1,-1,0,0,0,0,2020-10-21 18:07:18.342
2,0,-2,0,-1,-1,0,-1,2020-10-21 18:07:18.359
-1,-3,1,-1,0,0,1,1,2020-10-21 18:07:18.376
1,1,0,1,1,0,-1,-2,2020-10-21 18:07:18.392
-2,-2,-1,-1,-1,-2,0,-2,2020-10-21 18:07:18.409
4,0,-1,0,-1,0,-1,-1,2020-10-21 18:07:18.425
2,0,0,-2,-2,-2,0,0,2020-10-21 18:07:18.441
2,1,-2,-1,-3,1,-3,-4,2020-10-21 18:07:18.458
-7,-2,-1,-2,-1,-1,-2,0,2020-10-21 18:07:18.475
1,-1,-1,-1,-2,-1,-1,-1,2020-10-21 18:07:18.492
-2,-4,-2,1,-2,0,-1,-1,2020-10-21 18:07:18.508
-2,-4,-2,1,-2,0,-1,-3,2020-10-21 18:07:18.524
-4,-2,-3,-2,-2,-1,0,1,2020-10-21 18:07:18.542
-1,-1,0,-1,2,0,-1,-1,2020-10-21 18:07:18.558
-5,-2,-2,-1,-2,0,-1,-3,2020-10-21 18:07:18.575
-2,-3,0,-1,-4,0,-1,1,2020-10-21 18:07:18.592
-4,-1,-2,-1,-1,-1,-1,1,2020-10-21 18:07:18.609
-1,-1,-1,0,1,0,-3,-1,2020-10-21 18:07:18.625
-6,-4,0,-1,0,-2,0,-1,2020-10-21 18:07:18.642
0,-3,-2,0,0,-2,1,0,2020-10-21 18:07:18.659
0,2,0,0,-1,-2,-2,0,2020-10-21 18:07:18.676
-2,0,-1,0,1,1,-2,1,2020-10-21 18:07:18.692
3,1,0,-1,1,-1,1,-4,2020-10-21 18:07:18.709
3,1,0,-1,1,-1,1,1,2020-10-21 18:07:18.725
-7,0,0,-2,-2,-1,-1,-7,2020-10-21 18:07:18.742
-1,4,-1,0,-1,-1,0,1,2020-10-21 18:07:18.758
4,0,-2,-1,-1,1,0,3,2020-10-21 18:07:18.775
4,0,-1,0,0,-2,0,-4,2020-10-21 18:07:18.792
0,0,0,-1,1,0,0,-2,2020-10-21 18:07:18.809
-5,-3,0,-2,-2,-2,-2,-7,2020-10-21 18:07:18.825
-1,1,0,-2,-1,0,0,0,2020-10-21 18:07:18.842
-5,-4,-2,-1,-1,-2,-3,8,2020-10-21 18:07:18.859
0,0,0,0,0,1,0,3,2020-10-21 18:07:18.876
6,1,-1,-1,1,1,3,3,2020-10-21 18:07:18.892
-6,0,-1,-2,-1,0,-2,9,2020-10-21 18:07:18.909
-1,-3,0,1,-1,0,-2,10,2020-10-21 18:07:18.926
-13,-5,-2,-1,-1,-3,-6,9,2020-10-21 18:07:18.943
-5,-2,2,-1,-1,-1,1,-31,2020-10-21 18:07:18.960
10,0,0,2,2,0,3,1,2020-10-21 18:07:18.976
-5,2,0,0,-1,1,1,-5,2020-10-21 18:07:18.993
-2,5,-1,-3,-5,-14,33,3,2020-10-21 18:07:19.008
-2,-9,-3,1,3,-3,29,-1,2020-10-21 18:07:19.025
16,-7,-2,2,8,9,-15,-11,2020-10-21 18:07:19.043
5,15,5,0,-1,-3,8,17,2020-10-21 18:07:19.060
-27,-28,-3,3,-5,0,-27,10,2020-10-21 18:07:19.076
-2,-12,-3,-11,-30,-35,26,-14,2020-10-21 18:07:19.093
-8,6,-7,11,4,-7,10,3,2020-10-21 18:07:19.109
-6,15,16,11,25,7,40,6,2020-10-21 18:07:19.125
-3,-61,-19,-4,-1,-12,-30,6,2020-10-21 18:07:19.142
-17,32,7,-5,3,0,-4,2,2020-10-21 18:07:19.159
18,10,7,22,66,36,38,-2,2020-10-21 18:07:19.176
23,71,44,4,-26,-10,-20,7,2020-10-21 18:07:19.193
-17,-21,-5,-8,-12,-19,-20,-3,2020-10-21 18:07:19.209
13,26,6,3,9,-9,3,-20,2020-10-21 18:07:19.225
-2,-34,-11,-2,-8,10,13,0,2020-10-21 18:07:19.243
4,-20,-14,0,30,16,11,-12,2020-10-21 18:07:19.259
1,-6,-2,3,12,-3,0,19,2020-10-21 18:07:19.276
1,-9,-7,0,-19,4,6,-15,2020-10-21 18:07:19.293
3,-10,-10,6,25,0,3,2,2020-10-21 18:07:19.310
-7,5,1,-3,-9,-2,2,0,2020-10-21 18:07:19.326
-43,-16,-2,0,-65,-1,-10,4,2020-10-21 18:07:19.343
8,-8,-7,-8,-11,-11,-2,2,2020-10-21 18:07:19.360
-2,-8,-11,-11,-35,-9,-11,-4,2020-10-21 18:07:19.376
9,5,10,10,44,27,29,9,2020-10-21 18:07:19.393
-3,1,1,-1,-2,11,-3,-20,2020-10-21 18:07:19.410
-1,-1,-4,0,10,-4,-1,-31,2020-10-21 18:07:19.426
-6,4,-2,-8,-1,-10,-11,18,2020-10-21 18:07:19.443
10,5,2,-9,8,18,10,-7,2020-10-21 18:07:19.460
-3,-2,-3,-7,8,-4,-1,-34,2020-10-21 18:07:19.476
3,-4,-3,-2,4,-3,-1,28,2020-10-21 18:07:19.493
8,2,-5,-4,-1,0,11,-3,2020-10-21 18:07:19.510
-10,-6,-4,-4,-2,5,-16,-2,2020-10-21 18:07:19.526
-29,-16,-4,-2,-7,-49,-14,1,2020-10-21 18:07:19.543
29,9,9,8,4,13,15,19,2020-10-21 18:07:19.559
-26,-6,-1,2,2,3,-7,10,2020-10-21 18:07:19.576
-42,-7,4,0,-6,-42,-33,-13,2020-10-21 18:07:19.593
56,18,4,5,6,29,10,11,2020-10-21 18:07:19.610
-63,-4,3,-3,-3,-2,13,6,2020-10-21 18:07:19.626
-29,-5,0,-2,-5,-17,-5,-1,2020-10-21 18:07:19.643
2,-11,-6,-3,-2,2,26,-5,2020-10-21 18:07:19.660
52,22,-2,1,2,15,22,-20,2020-10-21 18:07:19.676
51,-24,2,0,4,6,1,17,2020-10-21 18:07:19.693
11,-61,-13,-5,-2,6,-5,4,2020-10-21 18:07:19.710
0,-19,-28,-3,-2,7,9,-2,2020-10-21 18:07:19.726
11,9,9,6,6,-4,6,-27,2020-10-21 18:07:19.744
4,-9,-4,2,3,-24,-39,9,2020-10-21 18:07:19.760
11,-14,-12,-5,-2,13,5,-22,2020-10-21 18:07:19.777
-56,49,15,0,1,0,3,20,2020-10-21 18:07:19.794
28,7,0,-3,-3,4,13,4,2020-10-21 18:07:19.810
-6,0,-2,2,4,12,-5,-14,2020-10-21 18:07:19.826
-8,38,19,-8,-7,15,19,15,2020-10-21 18:07:19.844
-42,-59,-40,-10,-4,-4,-45,12,2020-10-21 18:07:19.860
21,-3,-10,6,2,2,-17,-4,2020-10-21 18:07:19.878
-21,15,4,5,-3,-22,3,14,2020-10-21 18:07:19.894
30,44,26,0,-5,-1,2,14,2020-10-21 18:07:19.910
15,74,19,11,19,5,-9,1,2020-10-21 18:07:19.927
-14,-45,-21,-10,-5,-4,-12,1,2020-10-21 18:07:19.944
14,12,11,-2,-13,30,56,-5,2020-10-21 18:07:19.961
14,11,2,11,-13,-24,1,-2,2020-10-21 18:07:19.977
-1,-13,-12,-7,7,-1,-10,-2,2020-10-21 18:07:19.993
19,17,2,-2,1,-10,2,-2,2020-10-21 18:07:20.010
19,17,2,-2,1,-10,2,2,2020-10-21 18:07:20.026
5,1,-2,-1,-5,3,0,-7,2020-10-21 18:07:20.044
5,5,-2,4,10,-1,-17,1,2020-10-21 18:07:20.060
-8,-41,-5,-1,5,-10,-4,-9,2020-10-21 18:07:20.077
7,41,8,1,9,-2,1,-4,2020-10-21 18:07:20.094
-6,-20,-3,5,10,2,-7,5,2020-10-21 18:07:20.110
1,3,4,0,1,-10,2,1,2020-10-21 18:07:20.126
5,-2,0,6,2,2,-6,4,2020-10-21 18:07:20.144
-13,-5,-6,-9,-12,-5,-10,4,2020-10-21 18:07:20.160
-3,-4,1,1,-1,-5,-2,7,2020-10-21 18:07:20.177
-10,-10,-3,2,-2,-11,-8,-7,2020-10-21 18:07:20.194
-10,-2,-3,5,11,2,-1,-3,2020-10-21 18:07:20.210
4,-2,3,-5,-19,-4,0,-6,2020-10-21 18:07:20.227
1,15,4,-1,2,13,-2,-8,2020-10-21 18:07:20.244
7,3,9,2,6,6,6,-12,2020-10-21 18:07:20.261
22,-19,-1,0,3,1,-5,2,2020-10-21 18:07:20.278
0,-11,0,1,-4,-25,2,-7,2020-10-21 18:07:20.294
-6,1,-4,-7,-12,-6,-17,-3,2020-10-21 18:07:20.311
0,10,-3,2,6,4,-1,8,2020-10-21 18:07:20.327
-8,-18,-4,-2,-1,3,-7,7,2020-10-21 18:07:20.345
-17,-14,-22,-5,2,3,-4,7,2020-10-21 18:07:20.360
-18,19,4,-10,-23,-6,-33,-5,2020-10-21 18:07:20.377
5,-2,3,0,12,-5,1,-5,2020-10-21 18:07:20.393
-13,-3,-4,-2,50,7,-12,0,2020-10-21 18:07:20.410
0,-15,-16,-20,-64,7,8,30,2020-10-21 18:07:20.427
10,-5,2,2,4,14,25,-53,2020-10-21 18:07:20.444
6,7,6,7,31,12,20,-4,2020-10-21 18:07:20.461
14,13,2,4,31,3,9,11,2020-10-21 18:07:20.477
-15,1,-1,-11,-12,-11,-8,20,2020-10-21 18:07:20.494
-15,1,-1,-11,-12,-11,-8,-12,2020-10-21 18:07:20.511
-11,0,-1,-13,-44,1,5,6,2020-10-21 18:07:20.527
94,18,8,25,110,65,34,12,2020-10-21 18:07:20.544
-55,-25,-12,-3,21,-10,-35,4,2020-10-21 18:07:20.561
-80,8,6,4,-4,8,1,-3,2020-10-21 18:07:20.578
40,-1,-1,0,-30,-17,2,5,2020-10-21 18:07:20.594
47,15,1,-16,-6,-4,5,5,2020-10-21 18:07:20.611
-2,-9,2,37,10,8,-2,4,2020-10-21 18:07:20.627
56,3,-3,5,-7,-14,-5,6,2020-10-21 18:07:20.644
28,4,-2,-4,8,8,13,0,2020-10-21 18:07:20.661
19,4,3,4,13,7,4,0,2020-10-21 18:07:20.678
2,-1,-4,0,-5,-5,-3,2,2020-10-21 18:07:20.695
15,8,2,6,7,6,10,-1,2020-10-21 18:07:20.711
15,8,2,6,7,6,10,-1,2020-10-21 18:07:20.727
12,-4,-1,2,-1,2,7,5,2020-10-21 18:07:20.744
13,3,-1,-5,-3,1,4,-2,2020-10-21 18:07:20.761
8,-5,-5,1,1,-1,-6,-2,2020-10-21 18:07:20.778
3,10,2,0,-5,-4,-2,0,2020-10-21 18:07:20.795
3,1,-1,-5,0,-1,0,4,2020-10-21 18:07:20.811
1,-5,-10,8,2,0,-1,3,2020-10-21 18:07:20.827
-11,-5,-1,-5,-5,0,-1,-1,2020-10-21 18:07:20.844
8,3,1,-5,-5,-7,-2,-4,2020-10-21 18:07:20.861
-4,-2,2,1,2,-3,-3,-2,2020-10-21 18:07:20.878
-4,-2,2,1,2,-3,-3,0,2020-10-21 18:07:20.895
1,6,2,1,4,1,0,0,2020-10-21 18:07:20.911
2,0,1,0,-1,1,1,1,2020-10-21 18:07:20.927
3,3,0,-3,-1,2,2,2,2020-10-21 18:07:20.945
-2,-5,1,1,0,1,2,-1,2020-10-21 18:07:20.962
-4,-1,-3,-1,1,-2,-3,-2,2020-10-21 18:07:20.978
-1,0,-1,-2,-1,-1,-2,0,2020-10-21 18:07:20.995
1,-1,-1,-1,0,1,1,-2,2020-10-21 18:07:21.011
-4,-3,-1,1,1,0,0,-1,2020-10-21 18:07:21.027
1,-1,-1,-3,-1,-1,1,1,2020-10-21 18:07:21.044
1,1,0,-1,-2,-1,0,-2,2020-10-21 18:07:21.061
-2,-5,-2,-2,-1,0,-1,-1,2020-10-21 18:07:21.078
0,1,0,0,-2,0,0,-2,2020-10-21 18:07:21.095
-2,3,-1,0,-1,-1,-1,-2,2020-10-21 18:07:21.111
-1,-2,-2,-1,1,-1,0,0,2020-10-21 18:07:21.128
-2,0,-1,-1,-1,-1,-2,1,2020-10-21 18:07:21.145
5,8,0,-2,-3,0,1,-2,2020-10-21 18:07:21.162
-4,-4,-1,0,0,-1,-2,-2,2020-10-21 18:07:21.179
-1,-1,-2,-4,-2,-1,-2,-2,2020-10-21 18:07:21.195
0,-4,0,-1,-1,-2,-2,-3,2020-10-21 18:07:21.211
-1,-3,0,0,-4,-1,0,0,2020-10-21 18:07:21.228
-2,-2,0,1,2,1,1,2,2020-10-21 18:07:21.244
-2,-1,0,0,0,0,1,-4,2020-10-21 18:07:21.261
-1,0,-1,-1,0,-1,0,-1,2020-10-21 18:07:21.278
-5,-9,-1,-2,-2,-2,0,0,2020-10-21 18:07:21.295
-2,-3,-1,-1,-2,-4,-3,-1,2020-10-21 18:07:21.311
-1,5,-2,1,0,0,-4,1,2020-10-21 18:07:21.328
0,-1,0,-1,-1,-1,-1,-1,2020-10-21 18:07:21.345
-2,-1,-3,-1,0,-1,-1,0,2020-10-21 18:07:21.362
-3,-2,1,0,1,-2,-1,-1,2020-10-21 18:07:21.378
-2,-4,-2,-1,-1,1,-3,0,2020-10-21 18:07:21.395
2,1,0,0,-1,0,-1,-1,2020-10-21 18:07:21.411
-2,-4,-2,0,-1,1,-2,-2,2020-10-21 18:07:21.428
2,3,1,-2,2,1,1,-3,2020-10-21 18:07:21.444
-5,-4,-2,-1,-1,0,-1,3,2020-10-21 18:07:21.461
1,-1,-2,0,-2,-1,-2,0,2020-10-21 18:07:21.478
-1,-5,-1,-1,0,-1,-1,-1,2020-10-21 18:07:21.495
3,3,0,-2,-2,-1,0,0,2020-10-21 18:07:21.512
-6,-3,-1,0,-1,-1,0,1,2020-10-21 18:07:21.528
-1,0,0,1,1,0,-1,1,2020-10-21 18:07:21.545
-2,-1,2,1,1,0,0,-2,2020-10-21 18:07:21.562
1,0,1,-2,-1,1,0,1,2020-10-21 18:07:21.579
-2,-2,1,-2,0,-1,0,-2,2020-10-21 18:07:21.595
0,-3,-1,0,-1,-1,0,-3,2020-10-21 18:07:21.612
-2,-3,-3,-2,-4,-1,0,-2,2020-10-21 18:07:21.629
0,2,1,0,0,0,0,0,2020-10-21 18:07:21.645
-1,-4,-1,-2,-1,-1,0,-2,2020-10-21 18:07:21.662
0,-4,-3,-1,0,0,-2,-1,2020-10-21 18:07:21.679
1,3,-1,-1,-1,0,2,1,2020-10-21 18:07:21.696
-2,-2,-1,-1,-2,1,-2,-1,2020-10-21 18:07:21.712
-5,-10,-2,2,2,-3,0,0,2020-10-21 18:07:21.729
2,6,0,-3,-1,-4,-2,3,2020-10-21 18:07:21.745
-4,-5,-1,-1,1,-1,-1,0,2020-10-21 18:07:21.762
-4,-4,-2,0,-1,0,-1,-1,2020-10-21 18:07:21.779
-2,-2,1,1,-2,-1,-1,0,2020-10-21 18:07:21.795
-1,-4,-2,1,2,3,2,-1,2020-10-21 18:07:21.812
3,2,1,-2,-1,0,0,-1,2020-10-21 18:07:21.829
-2,-1,0,0,1,-2,-1,-2,2020-10-21 18:07:21.845
4,-3,-1,-2,-2,0,0,-1,2020-10-21 18:07:21.862
-4,-4,-1,0,-3,0,-1,2,2020-10-21 18:07:21.879
-3,-3,-3,0,0,3,-1,-2,2020-10-21 18:07:21.896
0,2,-1,-2,-2,-2,-1,1,2020-10-21 18:07:21.912
1,4,0,-1,1,0,0,1,2020-10-21 18:07:21.929
0,1,2,-1,-2,0,-2,0,2020-10-21 18:07:21.945
0,-2,0,0,-1,-1,-1,0,2020-10-21 18:07:21.962
-2,-3,-3,0,-1,-1,-3,-2,2020-10-21 18:07:21.979
0,1,1,-1,1,1,1,-2,2020-10-21 18:07:21.996
-1,1,0,0,1,1,-1,-1,2020-10-21 18:07:22.013
6,10,0,-1,-2,0,1,0,2020-10-21 18:07:22.029
1,1,0,-2,0,-1,0,-1,2020-10-21 18:07:22.046
-1,2,0,-1,0,0,0,0,2020-10-21 18:07:22.063
-1,-1,-1,0,-1,-3,0,0,2020-10-21 18:07:22.080
-2,-2,-3,-2,-2,-3,-2,0,2020-10-21 18:07:22.096
-2,-2,-3,-2,-2,-3,-2,1,2020-10-21 18:07:22.113
-1,0,-1,-2,-2,-3,0,-2,2020-10-21 18:07:22.129
5,4,1,0,-3,2,0,1,2020-10-21 18:07:22.146
-2,0,2,22,3,1,-1,-1,2020-10-21 18:07:22.163
-1,-3,0,-7,2,2,0,-1,2020-10-21 18:07:22.179
-1,7,1,-4,0,2,2,-3,2020-10-21 18:07:22.195
-1,-5,-4,-17,-6,-2,-1,1,2020-10-21 18:07:22.212
1,-3,1,20,5,2,0,-2,2020-10-21 18:07:22.229
-9,-3,-2,-23,-5,-3,-2,-3,2020-10-21 18:07:22.245
2,3,0,-1,-1,0,0,-3,2020-10-21 18:07:22.262
0,-4,-2,-1,0,0,-2,0,2020-10-21 18:07:22.279
-2,-2,0,-2,-3,-2,0,-1,2020-10-21 18:07:22.296
-1,-4,-2,-9,-5,-7,-5,1,2020-10-21 18:07:22.312
1,2,5,10,5,4,1,-1,2020-10-21 18:07:22.329
-2,-8,-3,1,-1,-2,0,-1,2020-10-21 18:07:22.345
-1,3,-2,0,0,2,0,1,2020-10-21 18:07:22.363
-1,-1,0,-3,-7,-13,-5,1,2020-10-21 18:07:22.380
-1,0,-2,-8,3,6,1,0,2020-10-21 18:07:22.397
0,-5,-2,-9,-3,-4,-4,-2,2020-10-21 18:07:22.413
-1,0,-3,-7,-2,-7,0,1,2020-10-21 18:07:22.430
-1,-2,6,16,4,6,0,-1,2020-10-21 18:07:22.446
0,2,-5,-14,-10,-4,-2,-2,2020-10-21 18:07:22.463
0,-2,0,5,1,2,1,-1,2020-10-21 18:07:22.480
1,-3,1,17,7,0,0,-1,2020-10-21 18:07:22.497
-1,-1,-1,-18,-4,-4,0,-1,2020-10-21 18:07:22.513
-4,-5,-2,-12,10,12,-1,0,2020-10-21 18:07:22.530
3,-1,-5,-12,-7,-14,-3,0,2020-10-21 18:07:22.546
-1,0,-5,-23,-5,2,1,0,2020-10-21 18:07:22.563
-1,4,5,9,2,5,1,1,2020-10-21 18:07:22.580
-2,0,-2,-17,-1,-1,1,-1,2020-10-21 18:07:22.596
-2,-4,-1,2,1,2,-2,-1,2020-10-21 18:07:22.613
0,10,0,-7,-4,0,0,0,2020-10-21 18:07:22.629
-1,-2,-2,5,1,0,0,-2,2020-10-21 18:07:22.645
-1,2,-2,-1,-1,-3,-2,3,2020-10-21 18:07:22.663
1,4,1,12,1,0,1,-1,2020-10-21 18:07:22.680
-3,-4,-2,4,-1,-1,-1,0,2020-10-21 18:07:22.696
1,0,0,-1,-3,-5,-2,-3,2020-10-21 18:07:22.713
1,-6,-2,-4,2,1,0,1,2020-10-21 18:07:22.730
-2,-1,-1,4,-1,0,-1,0,2020-10-21 18:07:22.746
-4,-4,-1,-1,-2,-3,-1,0,2020-10-21 18:07:22.763
5,2,1,-1,-2,-4,1,0,2020-10-21 18:07:22.780
-2,-7,-2,1,-1,0,-2,-1,2020-10-21 18:07:22.797
1,4,0,-1,1,2,-1,1,2020-10-21 18:07:22.813
0,-3,1,2,-1,1,-3,2,2020-10-21 18:07:22.830
2,8,5,3,2,-1,1,-2,2020-10-21 18:07:22.846
-2,-7,-3,-2,-9,-11,-1,-3,2020-10-21 18:07:22.864
2,6,-2,1,0,-4,-2,1,2020-10-21 18:07:22.880
-4,-3,-2,1,-2,-6,-2,-2,2020-10-21 18:07:22.897
-1,-1,-2,-1,-3,-5,0,-1,2020-10-21 18:07:22.914
2,9,1,1,0,9,1,-3,2020-10-21 18:07:22.931
1,-2,1,1,7,3,1,0,2020-10-21 18:07:22.947
2,6,2,4,2,0,-2,0,2020-10-21 18:07:22.964
0,0,-2,-5,-8,-7,-1,1,2020-10-21 18:07:22.980
0,4,1,-3,7,9,0,-1,2020-10-21 18:07:22.997
0,-9,-2,-4,-4,-6,-3,0,2020-10-21 18:07:23.014
1,1,-2,-4,-4,-8,-3,-2,2020-10-21 18:07:23.030
-2,-5,-4,-8,-7,1,-1,1,2020-10-21 18:07:23.046
0,-5,0,1,2,8,2,-2,2020-10-21 18:07:23.063
-5,-3,-2,0,0,-1,1,1,2020-10-21 18:07:23.080
0,0,3,5,4,3,0,-1,2020-10-21 18:07:23.097
-1,-1,-5,0,-5,-9,-2,2,2020-10-21 18:07:23.113
1,3,2,3,3,1,-2,1,2020-10-21 18:07:23.130
-4,2,1,2,0,2,-1,0,2020-10-21 18:07:23.146
2,4,1,-1,4,12,1,0,2020-10-21 18:07:23.164
-1,-4,-2,-2,1,2,0,1,2020-10-21 18:07:23.180
3,9,0,-1,-4,-6,-1,-2,2020-10-21 18:07:23.197
-2,-5,-2,-1,2,-2,-1,-2,2020-10-21 18:07:23.213
2,2,1,2,5,10,5,-1,2020-10-21 18:07:23.230
3,3,0,0,1,0,-2,-1,2020-10-21 18:07:23.246
-2,0,0,5,4,-2,-1,-1,2020-10-21 18:07:23.263
-1,-2,-1,-9,-7,-8,-4,-2,2020-10-21 18:07:23.280
-2,-5,1,0,3,20,4,-1,2020-10-21 18:07:23.297
-3,0,-1,-3,-10,-16,-4,-1,2020-10-21 18:07:23.314
-2,-2,-2,-1,-3,-8,-4,3,2020-10-21 18:07:23.331
-4,-3,-1,-8,0,-2,1,-2,2020-10-21 18:07:23.347
-4,-3,-1,-8,0,-2,1,-1,2020-10-21 18:07:23.364
-1,-3,-3,-7,-19,1,-3,-2,2020-10-21 18:07:23.381
3,8,-1,-2,3,-1,-5,-3,2020-10-21 18:07:23.397
0,-2,-2,-1,-14,-26,-3,5,2020-10-21 18:07:23.414
-1,0,-2,-7,-1,13,0,-3,2020-10-21 18:07:23.431
1,0,1,3,-19,-5,2,-2,2020-10-21 18:07:23.447
-2,-5,-3,-5,-26,-34,-3,0,2020-10-21 18:07:23.464
0,1,0,-3,13,16,-2,-1,2020-10-21 18:07:23.481
-3,-3,-2,-2,5,-3,0,-1,2020-10-21 18:07:23.498
-1,-3,-3,-1,-8,4,-6,-4,2020-10-21 18:07:23.514
4,3,4,14,59,65,18,-2,2020-10-21 18:07:23.531
-1,-2,-3,-5,-21,-22,-10,-1,2020-10-21 18:07:23.547
-3,-3,-5,-6,-13,-16,-6,-2,2020-10-21 18:07:23.564
-2,-2,1,3,7,5,4,4,2020-10-21 18:07:23.581
2,4,1,-1,8,18,2,-1,2020-10-21 18:07:23.597
2,4,1,-1,8,18,2,0,2020-10-21 18:07:23.614
-6,-8,-3,-1,-10,-9,-2,0,2020-10-21 18:07:23.631
0,-4,-2,-3,-18,-34,-10,-1,2020-10-21 18:07:23.647
-1,1,-1,0,3,3,-2,2,2020-10-21 18:07:23.664
0,6,0,-4,-19,-29,-6,2,2020-10-21 18:07:23.681
1,2,-1,4,27,40,9,0,2020-10-21 18:07:23.698
2,-1,-2,0,3,-2,-3,0,2020-10-21 18:07:23.715
-2,-7,-3,-1,-13,-17,-1,-3,2020-10-21 18:07:23.731
-1,7,2,3,24,31,7,1,2020-10-21 18:07:23.747
-3,-3,-2,0,1,2,1,-3,2020-10-21 18:07:23.765
2,-4,3,9,41,45,7,2,2020-10-21 18:07:23.781
2,-4,3,9,41,45,7,0,2020-10-21 18:07:23.798
-5,-7,-3,-3,-3,26,2,-1,2020-10-21 18:07:23.814
-1,-2,-1,1,6,15,3,-2,2020-10-21 18:07:23.831
-3,-3,-3,-4,-12,-19,-11,3,2020-10-21 18:07:23.847
3,6,-2,-7,-6,-22,-3,0,2020-10-21 18:07:23.864
-6,-15,0,2,-4,-7,-1,-2,2020-10-21 18:07:23.881
4,10,3,-2,3,3,4,-2,2020-10-21 18:07:23.898
-1,-1,2,17,19,30,7,0,2020-10-21 18:07:23.915
-2,2,-2,-4,-3,7,-1,-1,2020-10-21 18:07:23.931
0,-2,-2,0,1,1,0,-2,2020-10-21 18:07:23.948
3,7,2,1,12,6,5,-2,2020-10-21 18:07:23.965
1,0,-2,-4,3,0,-1,-1,2020-10-21 18:07:23.981
-3,-3,-2,-2,8,-2,-3,-4,2020-10-21 18:07:23.998
-1,0,-2,-4,-9,-11,-3,6,2020-10-21 18:07:24.015
-2,-4,0,1,0,-3,0,-3,2020-10-21 18:07:24.032
1,1,1,-2,3,15,5,2,2020-10-21 18:07:24.048
-2,6,2,-2,-3,-5,-5,-4,2020-10-21 18:07:24.064
-2,6,2,-2,-3,-5,-5,6,2020-10-21 18:07:24.081
-3,-7,-5,-3,-5,-7,-1,3,2020-10-21 18:07:24.098
-6,-15,-21,-7,-7,-7,-10,-5,2020-10-21 18:07:24.115
8,-19,-11,2,3,5,4,-1,2020-10-21 18:07:24.132
-4,-7,4,-3,-4,-7,-9,-2,2020-10-21 18:07:24.148
6,70,26,5,1,-2,1,-1,2020-10-21 18:07:24.165
-8,-24,-12,-1,-4,-4,-4,3,2020-10-21 18:07:24.182
9,18,10,1,1,1,0,1,2020-10-21 18:07:24.198
-3,-15,-8,-3,4,-4,32,-4,2020-10-21 18:07:24.215
-3,1,-2,2,6,1,-12,-4,2020-10-21 18:07:24.232
-1,-2,-2,22,-2,6,-4,1,2020-10-21 18:07:24.248
-3,-8,-5,-26,-15,-10,-6,-1,2020-10-21 18:07:24.265
0,2,1,-1,3,0,-4,-2,2020-10-21 18:07:24.282
4,3,0,-7,-19,-29,-7,0,2020-10-21 18:07:24.299
0,-2,0,2,5,8,-1,-1,2020-10-21 18:07:24.315
-1,-2,-1,0,-3,-6,-4,-2,2020-10-21 18:07:24.332
-4,-1,-1,-4,-3,0,-3,0,2020-10-21 18:07:24.348
5,1,2,-3,-1,-1,0,0,2020-10-21 18:07:24.364
-5,-7,-1,2,0,-2,-2,-2,2020-10-21 18:07:24.381
0,-3,-4,-2,-3,-6,-2,-1,2020-10-21 18:07:24.398
-4,-2,1,-1,0,0,0,0,2020-10-21 18:07:24.415
-4,-5,-2,0,0,0,0,2,2020-10-21 18:07:24.432
1,0,-2,-2,-3,-2,-2,0,2020-10-21 18:07:24.448
2,6,1,1,2,0,0,-3,2020-10-21 18:07:24.464
-5,-3,0,0,-1,0,-2,-9,2020-10-21 18:07:24.482
0,2,1,-3,0,-2,-2,-13,2020-10-21 18:07:24.499
-6,-6,-2,-1,1,-3,-2,4,2020-10-21 18:07:24.515
3,6,2,0,-2,-2,1,16,2020-10-21 18:07:24.532
1,-4,-2,2,2,-1,-1,-3,2020-10-21 18:07:24.549
3,-4,3,-1,-2,-2,-2,16,2020-10-21 18:07:24.565
-5,-2,-4,0,1,0,-2,-15,2020-10-21 18:07:24.582
-8,37,-7,-5,-6,-6,-4,-28,2020-10-21 18:07:24.599
-11,-12,-23,-9,-6,-6,-8,4,2020-10-21 18:07:24.616
14,74,27,8,6,8,6,6,2020-10-21 18:07:24.632
25,-4,30,9,6,8,12,-7,2020-10-21 18:07:24.649
-4,61,-4,-3,-6,5,4,-1,2020-10-21 18:07:24.665
23,55,35,6,-1,3,7,-4,2020-10-21 18:07:24.682
-5,-11,1,1,4,21,24,-17,2020-10-21 18:07:24.699
-36,-66,-38,-26,-21,-42,-53,30,2020-10-21 18:07:24.715
17,-37,2,17,13,19,-3,4,2020-10-21 18:07:24.732
-14,-16,-24,-5,-20,13,33,-20,2020-10-21 18:07:24.748
-15,-14,-25,-9,1,-10,-25,-14,2020-10-21 18:07:24.765
1,-3,34,6,7,-4,-1,-15,2020-10-21 18:07:24.782
0,25,8,-1,3,-2,-3,-2,2020-10-21 18:07:24.798
-18,-13,-107,-22,-7,-20,-10,7,2020-10-21 18:07:24.815
10,13,34,3,4,30,68,-10,2020-10-21 18:07:24.832
1,-21,-14,-2,-2,6,2,-2,2020-10-21 18:07:24.849
-10,-12,44,14,17,-15,-53,9,2020-10-21 18:07:24.865
-29,-25,-28,-16,-29,-20,-9,4,2020-10-21 18:07:24.882
2,13,14,4,0,-4,-7,-10,2020-10-21 18:07:24.899
-9,-1,17,-6,-6,-2,-2,8,2020-10-21 18:07:24.916
-4,-2,-12,-9,-12,-3,0,-6,2020-10-21 18:07:24.932
-30,-24,-11,-22,2,-9,-10,8,2020-10-21 18:07:24.949
-18,-52,-36,2,-2,-1,14,2,2020-10-21 18:07:24.965
7,2,9,-7,12,14,7,-4,2020-10-21 18:07:24.983
-4,-18,5,29,10,8,6,1,2020-10-21 18:07:24.999
1,-6,-30,-3,-20,-27,-15,6,2020-10-21 18:07:25.016
17,6,41,16,13,7,4,2,2020-10-21 18:07:25.033
-21,-24,-46,4,6,-6,-5,-6,2020-10-21 18:07:25.050
6,4,0,2,7,15,10,2,2020-10-21 18:07:25.066
4,10,14,24,4,11,9,-1,2020-10-21 18:07:25.083
-4,-14,-17,-16,-8,-5,-4,1,2020-10-21 18:07:25.099
-5,-6,-9,-18,1,2,1,-11,2020-10-21 18:07:25.115
1,-3,-5,4,24,14,11,5,2020-10-21 18:07:25.132
1,10,17,19,4,-1,1,-1,2020-10-21 18:07:25.149
0,-6,-20,-24,-18,4,-8,2,2020-10-21 18:07:25.165
2,-5,-9,18,7,8,5,-15,2020-10-21 18:07:25.182
-6,-10,-1,-12,-17,-12,-4,-7,2020-10-21 18:07:25.199
-1,-8,20,102,39,52,8,-2,2020-10-21 18:07:25.216
-16,-34,-18,-59,-21,-35,-11,1,2020-10-21 18:07:25.232
17,14,3,-35,-23,-63,-11,-2,2020-10-21 18:07:25.249
30,36,-6,-64,-18,3,0,-3,2020-10-21 18:07:25.265
-26,-33,3,-8,54,54,15,3,2020-10-21 18:07:25.283
-9,-34,-28,-62,-92,-62,-33,-14,2020-10-21 18:07:25.300
21,15,-19,-2,-26,-6,-4,5,2020-10-21 18:07:25.316
12,11,-19,-52,-18,-4,-5,-2,2020-10-21 18:07:25.333
-18,-17,-31,22,8,3,3,-1,2020-10-21 18:07:25.350
9,41,37,-18,-23,-25,-6,-2,2020-10-21 18:07:25.366
7,8,4,-9,19,2,-2,4,2020-10-21 18:07:25.383
7,25,29,74,-4,-27,4,5,2020-10-21 18:07:25.400
-35,-50,-30,-128,-49,-44,-20,0,2020-10-21 18:07:25.417
22,48,29,71,40,54,4,0,2020-10-21 18:07:25.433
3,-2,-27,-41,-29,-3,-10,3,2020-10-21 18:07:25.450
-9,-14,-13,-26,51,32,2,3,2020-10-21 18:07:25.466
-9,21,4,79,39,29,-4,-5,2020-10-21 18:07:25.483
16,18,9,40,37,-4,5,-4,2020-10-21 18:07:25.499
15,-3,16,78,59,81,23,-4,2020-10-21 18:07:25.516
13,22,2,35,28,40,14,0,2020-10-21 18:07:25.533
10,18,6,15,3,-15,4,-8,2020-10-21 18:07:25.550
-5,-11,16,39,22,2,16,16,2020-10-21 18:07:25.566
35,42,21,62,-3,-9,1,0,2020-10-21 18:07:25.583
0,12,-5,-3,-37,-63,-14,0,2020-10-21 18:07:25.600
-27,-48,-15,-56,-44,-22,-3,-4,2020-10-21 18:07:25.617
-5,0,7,45,8,14,-1,-3,2020-10-21 18:07:25.633
-11,-14,-3,-20,5,-37,1,-5,2020-10-21 18:07:25.650
-5,-1,3,60,14,8,-8,-3,2020-10-21 18:07:25.666
36,42,14,-27,42,28,14,-2,2020-10-21 18:07:25.683
7,8,5,23,-1,11,5,-2,2020-10-21 18:07:25.700
-11,-23,-7,-40,-69,-68,-13,-2,2020-10-21 18:07:25.716
-9,-13,-14,-87,-1,-18,-2,3,2020-10-21 18:07:25.733
-2,3,9,67,-46,-46,-17,-2,2020-10-21 18:07:25.750
-13,-18,-21,-48,-22,11,-2,3,2020-10-21 18:07:25.766
-3,-7,-4,-16,-7,12,-3,0,2020-10-21 18:07:25.783
-11,-13,-17,-65,-41,34,2,0,2020-10-21 18:07:25.800
-11,-15,9,49,36,54,0,6,2020-10-21 18:07:25.817
3,11,2,-37,14,-26,0,2,2020-10-21 18:07:25.834
7,5,15,77,15,-12,4,2,2020-10-21 18:07:25.850
-3,3,-7,-20,-40,-59,-10,4,2020-10-21 18:07:25.866
16,34,12,35,-40,-34,-4,-9,2020-10-21 18:07:25.884
-10,-16,-24,-107,-20,9,2,-1,2020-10-21 18:07:25.900
-16,-30,-9,-22,-47,-34,-10,-1,2020-10-21 18:07:25.917
-16,-19,-17,-61,9,5,10,-2,2020-10-21 18:07:25.934
7,3,4,11,1,24,4,-3,2020-10-21 18:07:25.950
10,14,12,22,-15,-18,-4,-1,2020-10-21 18:07:25.967
4,-10,-1,3,13,7,4,4,2020-10-21 18:07:25.983
-16,-23,-2,-20,-29,-38,-14,0,2020-10-21 18:07:26.000
18,10,-5,-35,0,33,7,-1,2020-10-21 18:07:26.016
8,23,6,38,50,75,7,-4,2020-10-21 18:07:26.033
7,18,2,0,8,-24,-6,-4,2020-10-21 18:07:26.050
-8,-17,12,118,31,25,-1,1,2020-10-21 18:07:26.066
-12,-25,-15,-62,-20,21,2,-2,2020-10-21 18:07:26.083
14,17,7,-14,29,-17,7,1,2020-10-21 18:07:26.100
-3,-3,-2,-18,-8,-1,-2,-1,2020-10-21 18:07:26.117
-12,-19,-5,-21,14,13,5,-1,2020-10-21 18:07:26.133
-23,-29,-8,17,-39,-50,-15,5,2020-10-21 18:07:26.150
-11,1,0,5,-20,-15,-4,-2,2020-10-21 18:07:26.166
20,34,8,48,-1,-20,-4,-11,2020-10-21 18:07:26.184
-5,0,-15,-63,-65,-19,-6,6,2020-10-21 18:07:26.200
14,31,19,105,19,-6,4,12,2020-10-21 18:07:26.217
-1,1,-2,33,37,36,5,8,2020-10-21 18:07:26.234
-1,1,-2,33,37,36,5,-8,2020-10-21 18:07:26.251
24,26,9,-8,-6,-13,-1,3,2020-10-21 18:07:26.267
-20,-29,-12,-8,-20,-47,-6,-1,2020-10-21 18:07:26.284
0,11,16,46,4,7,-2,4,2020-10-21 18:07:26.301
1,-19,-15,-36,-5,-8,1,-3,2020-10-21 18:07:26.318
-26,-57,-33,-95,-41,-22,3,8,2020-10-21 18:07:26.334
32,50,21,53,41,32,9,1,2020-10-21 18:07:26.350
-9,-8,-1,-48,-41,1,-7,-8,2020-10-21 18:07:26.366
2,-4,15,24,27,40,4,8,2020-10-21 18:07:26.384
25,43,-4,-15,14,-4,-4,-4,2020-10-21 18:07:26.400
8,8,-8,-24,21,19,8,1,2020-10-21 18:07:26.417
-9,-7,-11,-11,2,-13,-1,1,2020-10-21 18:07:26.434
35,37,14,-37,2,-17,4,5,2020-10-21 18:07:26.450
-12,-11,-10,-70,8,16,6,-2,2020-10-21 18:07:26.467
0,3,0,10,-10,-18,-8,-6,2020-10-21 18:07:26.484
23,27,19,73,60,51,12,-8,2020-10-21 18:07:26.501
-5,-7,-9,-34,-19,-10,-6,6,2020-10-21 18:07:26.517
11,21,5,0,41,56,8,4,2020-10-21 18:07:26.534
0,-3,15,16,39,-2,-5,1,2020-10-21 18:07:26.551
30,41,16,34,20,-37,2,2,2020-10-21 18:07:26.567
-7,-9,0,-15,-2,-12,0,-2,2020-10-21 18:07:26.584
-20,-32,-6,-17,-18,-23,-6,6,2020-10-21 18:07:26.601
-15,-26,-24,0,-12,28,5,-6,2020-10-21 18:07:26.618
-1,-5,1,-5,13,-30,0,2,2020-10-21 18:07:26.635
6,20,9,8,-4,10,5,-2,2020-10-21 18:07:26.651
12,10,0,-4,-6,-2,2,-2,2020-10-21 18:07:26.667
9,12,3,-16,-3,4,4,-4,2020-10-21 18:07:26.685
-6,-4,0,9,-2,-27,0,-1,2020-10-21 18:07:26.701
5,5,10,-2,12,45,10,-1,2020-10-21 18:07:26.718
-6,-7,-1,-20,-22,-21,-12,-4,2020-10-21 18:07:26.734
6,5,10,48,24,23,8,-2,2020-10-21 18:07:26.750
-18,-19,-2,27,13,4,1,-4,2020-10-21 18:07:26.767
4,2,-2,32,13,10,0,-3,2020-10-21 18:07:26.784
-15,-18,-8,-32,3,7,-1,-3,2020-10-21 18:07:26.801
-2,6,3,-5,10,16,1,2,2020-10-21 18:07:26.817
6,7,2,61,17,26,3,-7,2020-10-21 18:07:26.834
-7,-13,-3,9,-27,-74,-16,-7,2020-10-21 18:07:26.851
7,-3,-5,10,-6,-9,1,8,2020-10-21 18:07:26.867
-14,-9,-17,-75,-43,-21,-7,1,2020-10-21 18:07:26.884
8,19,11,27,40,34,3,5,2020-10-21 18:07:26.901
1,0,-13,-40,-28,-38,-7,0,2020-10-21 18:07:26.918
1,1,-6,-38,-29,-35,-5,5,2020-10-21 18:07:26.935
-13,-16,4,46,10,3,-4,-2,2020-10-21 18:07:26.951
-13,-16,4,46,10,3,-4,-11,2020-10-21 18:07:26.967
8,5,-8,-62,-13,16,6,-2,2020-10-21 18:07:26.985
21,13,-2,-28,-8,37,3,0,2020-10-21 18:07:27.001
-2,-2,4,0,45,67,14,-4,2020-10-21 18:07:27.018
5,9,3,20,-13,-5,-1,-4,2020-10-21 18:07:27.035
5,10,2,10,-3,-3,2,-5,2020-10-21 18:07:27.052
-27,-30,-4,10,37,38,13,-2,2020-10-21 18:07:27.068
-18,-27,-3,1,-3,-14,-5,2,2020-10-21 18:07:27.085
5,-2,1,-38,-23,-27,-9,7,2020-10-21 18:07:27.101
6,5,0,-10,15,14,0,-1,2020-10-21 18:07:27.117
5,2,-4,23,0,6,-1,-3,2020-10-21 18:07:27.134
-7,-6,5,14,0,-7,1,-2,2020-10-21 18:07:27.151
5,-2,-13,-19,-29,-13,-3,-7,2020-10-21 18:07:27.167
13,26,12,88,33,19,6,8,2020-10-21 18:07:27.185
8,14,-5,-28,-18,-26,-7,-10,2020-10-21 18:07:27.201
2,4,3,13,10,2,8,-2,2020-10-21 18:07:27.218
-14,-15,10,19,14,15,0,-2,2020-10-21 18:07:27.235
-9,0,5,-37,-25,-13,-5,-7,2020-10-21 18:07:27.251
-9,-17,-3,21,-2,12,2,-5,2020-10-21 18:07:27.268
-4,-10,-10,-23,-4,-40,-12,1,2020-10-21 18:07:27.285
35,40,14,42,34,42,2,8,2020-10-21 18:07:27.302
-18,-10,-11,-26,-42,-55,-21,3,2020-10-21 18:07:27.318
-46,-46,-8,-5,-9,13,1,0,2020-10-21 18:07:27.335
-6,-10,-6,51,23,21,8,-4,2020-10-21 18:07:27.351
-2,0,-2,26,18,1,-4,-7,2020-10-21 18:07:27.368
-8,-4,8,18,-34,-74,-19,2,2020-10-21 18:07:27.384
14,13,15,43,12,7,2,-3,2020-10-21 18:07:27.401
6,16,9,-45,19,39,17,-1,2020-10-21 18:07:27.418
21,10,1,35,13,-22,1,-2,2020-10-21 18:07:27.435
-2,-8,11,37,38,13,4,-3,2020-10-21 18:07:27.452
2,0,-9,-76,-28,-3,-4,-3,2020-10-21 18:07:27.469
-5,-3,10,15,-4,-47,-11,3,2020-10-21 18:07:27.485
-5,-4,-7,-24,-17,-11,-4,-8,2020-10-21 18:07:27.502
2,4,-10,-34,-40,-26,-10,-5,2020-10-21 18:07:27.519
-7,-4,-11,-6,-5,7,1,4,2020-10-21 18:07:27.535
-6,-2,-25,-43,-22,-9,-2,-9,2020-10-21 18:07:27.552
-45,-65,-23,120,14,17,8,2,2020-10-21 18:07:27.569
37,60,15,-18,-2,-5,-2,29,2020-10-21 18:07:27.585
1,30,-28,-5,12,5,14,-13,2020-10-21 18:07:27.602
-14,-6,20,30,27,21,-3,-14,2020-10-21 18:07:27.619
-32,-19,-6,-88,-38,-34,1,17,2020-10-21 18:07:27.636
2,17,52,56,23,27,13,-9,2020-10-21 18:07:27.652
-50,-78,-49,-12,1,1,3,-3,2020-10-21 18:07:27.669
2,12,-1,-14,7,10,8,-12,2020-10-21 18:07:27.685
85,108,120,-33,18,17,14,2,2020-10-21 18:07:27.702
-59,-94,-72,-26,-19,-8,-4,14,2020-10-21 18:07:27.719
-32,-70,-59,9,1,10,0,9,2020-10-21 18:07:27.736
32,44,40,-20,-12,-6,3,-8,2020-10-21 18:07:27.752
-7,-43,-59,-16,-4,6,-3,-6,2020-10-21 18:07:27.769
5,-7,-9,-2,-6,-16,-8,-26,2020-10-21 18:07:27.785
-34,-72,-44,18,-4,-12,-7,-7,2020-10-21 18:07:27.802
5,23,4,34,29,15,2,-6,2020-10-21 18:07:27.820
32,72,61,5,-7,-21,-3,-7,2020-10-21 18:07:27.836
32,65,88,33,7,7,8,-1,2020-10-21 18:07:27.852
-19,-39,-33,-66,-20,-8,-6,-16,2020-10-21 18:07:27.868
2,26,9,-10,-18,-44,-13,-1,2020-10-21 18:07:27.885
-35,-47,-54,23,28,10,-7,2,2020-10-21 18:07:27.903
-26,-62,-75,-18,-21,-16,-12,5,2020-10-21 18:07:27.918
5,21,-65,-40,-24,-10,-8,-2,2020-10-21 18:07:27.935
-10,-19,-7,24,8,16,-3,5,2020-10-21 18:07:27.952
-4,-24,-15,-2,-7,-8,-7,-2,2020-10-21 18:07:27.969
-31,-68,-76,11,21,24,0,4,2020-10-21 18:07:27.985
9,24,20,18,7,12,1,-8,2020-10-21 18:07:28.003
7,11,15,-37,-15,8,2,-6,2020-10-21 18:07:28.019
-4,-21,15,12,19,30,7,0,2020-10-21 18:07:28.036
-3,-11,-4,-10,-5,5,-3,-6,2020-10-21 18:07:28.052
11,6,25,23,-7,-29,-9,-7,2020-10-21 18:07:28.069
-9,-15,23,12,23,40,6,-3,2020-10-21 18:07:28.085
3,7,30,8,4,-6,4,4,2020-10-21 18:07:28.103
-3,18,19,-2,-9,-18,-6,-1,2020-10-21 18:07:28.119
-5,-21,8,-8,-1,0,-3,5,2020-10-21 18:07:28.135
2,8,22,10,12,18,1,-3,2020-10-21 18:07:28.152
-9,-21,-27,10,-5,-8,-5,0,2020-10-21 18:07:28.169
-6,-20,23,2,-34,-69,-22,6,2020-10-21 18:07:28.185
-8,-22,-2,-13,4,14,5,2,2020-10-21 18:07:28.202
3,5,24,33,6,-2,4,-6,2020-10-21 18:07:28.219
8,29,26,-8,-9,-8,-2,2,2020-10-21 18:07:28.236
4,-3,-13,16,2,5,2,-8,2020-10-21 18:07:28.253
-8,-13,-39,-12,0,22,8,7,2020-10-21 18:07:28.269
7,5,-14,2,2,-6,-3,-4,2020-10-21 18:07:28.286
2,-6,26,-16,-2,-9,-4,-4,2020-10-21 18:07:28.303
12,27,10,40,32,55,5,4,2020-10-21 18:07:28.319
-12,-12,36,-13,-15,-39,-13,-1,2020-10-21 18:07:28.336
2,17,6,-5,-3,-14,1,0,2020-10-21 18:07:28.353
-12,-36,26,2,-28,-51,-18,-2,2020-10-21 18:07:28.369
9,11,8,-20,0,17,6,-3,2020-10-21 18:07:28.385
-1,36,-3,13,14,13,2,-3,2020-10-21 18:07:28.402
-5,-11,-46,4,-1,2,1,-7,2020-10-21 18:07:28.419
4,2,6,-11,-4,3,5,4,2020-10-21 18:07:28.436
2,8,-128,21,7,0,-1,2,2020-10-21 18:07:28.452
-1,-9,75,-26,-9,-2,-1,-4,2020-10-21 18:07:28.469
-5,-8,-59,3,-5,1,-1,1,2020-10-21 18:07:28.485
-2,-3,1,-10,-7,-11,-5,0,2020-10-21 18:07:28.503
-6,-24,-17,-36,-9,-18,-7,-1,2020-10-21 18:07:28.519
-6,-12,-18,5,-6,-8,-5,-5,2020-10-21 18:07:28.536
1,-4,10,-1,15,28,3,2,2020-10-21 18:07:28.553
10,29,-8,31,7,32,2,-3,2020-10-21 18:07:28.569
-6,-9,-24,-33,-21,-4,-4,-2,2020-10-21 18:07:28.586
0,5,-1,-5,-13,-25,-3,-5,2020-10-21 18:07:28.603
5,5,-25,12,2,-3,-1,7,2020-10-21 18:07:28.620
-4,-14,-15,7,-3,-3,-1,-7,2020-10-21 18:07:28.636
-2,7,7,7,-9,-14,-6,3,2020-10-21 18:07:28.653
3,2,-21,9,2,-9,2,-6,2020-10-21 18:07:28.670
-11,-12,18,-12,-4,-7,-3,7,2020-10-21 18:07:28.686
3,1,-24,3,0,0,-2,-3,2020-10-21 18:07:28.703
-5,1,-10,12,10,-7,-6,-1,2020-10-21 18:07:28.720
2,3,-35,-2,5,15,9,-6,2020-10-21 18:07:28.737
-11,-15,35,-21,-4,-11,-6,1,2020-10-21 18:07:28.754
13,26,16,14,5,19,15,6,2020-10-21 18:07:28.770
-4,0,22,-35,-25,-15,1,-4,2020-10-21 18:07:28.787
7,8,-27,6,9,1,8,-1,2020-10-21 18:07:28.803
-8,-11,-24,2,0,3,-2,-2,2020-10-21 18:07:28.819
2,2,1,14,19,32,6,6,2020-10-21 18:07:28.836
-9,-15,-4,-5,-9,-10,-6,-3,2020-10-21 18:07:28.853
8,19,8,-31,-25,-39,-6,-1,2020-10-21 18:07:28.870
7,4,-18,52,38,47,16,5,2020-10-21 18:07:28.886
-1,5,4,-28,-21,-23,-13,-3,2020-10-21 18:07:28.903
-11,-28,-4,-25,-31,-40,-12,-1,2020-10-21 18:07:28.920
1,2,-2,-6,-2,-3,-4,1,2020-10-21 18:07:28.937
3,9,-9,-21,5,64,13,-5,2020-10-21 18:07:28.953
-1,10,12,16,4,1,3,2,2020-10-21 18:07:28.970
5,13,1,-20,-20,-34,-10,2,2020-10-21 18:07:28.986
3,-3,6,19,30,27,14,-4,2020-10-21 18:07:29.004
-1,-3,-8,23,4,-5,-7,3,2020-10-21 18:07:29.020
-11,-17,-19,9,3,4,1,1,2020-10-21 18:07:29.037
-1,-3,10,-3,3,18,4,-5,2020-10-21 18:07:29.054
-4,9,-12,6,-19,-40,-9,-2,2020-10-21 18:07:29.070
7,16,6,6,-1,-4,-2,-1,2020-10-21 18:07:29.087
14,19,-5,-18,-5,-17,-2,3,2020-10-21 18:07:29.104
-4,-2,-4,-25,-14,-12,-7,-4,2020-10-21 18:07:29.120
-2,-9,11,11,-2,8,1,-5,2020-10-21 18:07:29.138
11,14,7,0,-5,-18,-3,-2,2020-10-21 18:07:29.154
-3,-5,1,-31,-19,-17,-7,3,2020-10-21 18:07:29.170
-1,12,-38,19,-8,-8,1,-1,2020-10-21 18:07:29.186
-7,-10,1,-4,0,-1,1,-6,2020-10-21 18:07:29.203
3,4,-18,15,25,12,4,-1,2020-10-21 18:07:29.220
-3,-16,3,-19,0,16,-2,-1,2020-10-21 18:07:29.237
-8,-10,-19,-17,-11,-13,-5,-3,2020-10-21 18:07:29.253
0,-11,16,-7,-11,-20,-5,-4,2020-10-21 18:07:29.270
5,5,2,5,14,1,1,2,2020-10-21 18:07:29.286
-4,-12,-18,-17,-13,-10,-6,-2,2020-10-21 18:07:29.304
-6,0,-13,-7,-6,-4,-4,-7,2020-10-21 18:07:29.320
9,36,-14,11,9,37,8,2,2020-10-21 18:07:29.337
2,5,6,-1,6,8,3,1,2020-10-21 18:07:29.354
-9,-28,28,-11,-13,-21,-9,-4,2020-10-21 18:07:29.370
-7,-21,17,-22,-4,-5,-5,2,2020-10-21 18:07:29.387
3,4,-33,21,4,3,1,2,2020-10-21 18:07:29.404
-6,-13,3,-12,0,-3,-1,0,2020-10-21 18:07:29.421
-8,-7,-14,-30,-28,-32,-19,0,2020-10-21 18:07:29.438
2,0,1,0,-4,-13,-2,1,2020-10-21 18:07:29.454
5,10,-7,1,6,4,1,0,2020-10-21 18:07:29.471
-7,-7,-2,25,-6,6,0,-5,2020-10-21 18:07:29.487
1,-4,-15,-7,4,0,1,4,2020-10-21 18:07:29.504
6,12,-6,5,0,4,2,-5,2020-10-21 18:07:29.521
-4,-9,-18,-10,-3,-4,3,1,2020-10-21 18:07:29.538
0,-8,7,-4,-4,-12,-7,-3,2020-10-21 18:07:29.554
-2,-5,24,4,1,11,7,-4,2020-10-21 18:07:29.571
-2,-5,-13,-16,-3,-3,0,-1,2020-10-21 18:07:29.588
-5,-5,-9,-9,-7,0,-6,-4,2020-10-21 18:07:29.604
17,45,-30,7,22,37,8,0,2020-10-21 18:07:29.620
-7,-9,-7,-9,-7,-13,-7,1,2020-10-21 18:07:29.637
1,-4,15,-3,2,18,2,1,2020-10-21 18:07:29.654
-6,6,5,-15,-10,-25,-8,5,2020-10-21 18:07:29.671
0,-3,-13,-12,-7,-1,-3,5,2020-10-21 18:07:29.687
-3,-1,-17,-3,-2,-18,-2,1,2020-10-21 18:07:29.704
-4,-4,-10,7,23,29,5,-3,2020-10-21 18:07:29.721
0,8,10,7,8,12,7,-2,2020-10-21 18:07:29.738
1,-5,-10,5,-2,0,1,-2,2020-10-21 18:07:29.754
1,-5,-10,5,-2,0,1,-8,2020-10-21 18:07:29.771
4,4,-5,30,13,12,5,0,2020-10-21 18:07:29.787
4,4,-5,30,13,12,5,2,2020-10-21 18:07:29.804
-3,-11,-3,-8,-3,-5,0,-4,2020-10-21 18:07:29.821
1,2,-7,17,2,3,-1,0,2020-10-21 18:07:29.838
-3,3,-2,18,4,1,-3,-4,2020-10-21 18:07:29.854
0,4,-12,-17,-10,-12,-3,1,2020-10-21 18:07:29.871
-10,-4,12,-2,-6,-8,-4,-4,2020-10-21 18:07:29.887
2,10,5,0,1,4,-1,2,2020-10-21 18:07:29.905
-2,-9,-1,-26,-6,7,-1,2,2020-10-21 18:07:29.921
-4,-4,6,-8,-12,-13,-6,-4,2020-10-21 18:07:29.938
6,9,20,12,10,-6,-1,0,2020-10-21 18:07:29.955
-7,-17,3,-5,-8,-23,-9,-7,2020-10-21 18:07:29.972
-1,11,1,10,4,-13,-2,5,2020-10-21 18:07:29.987
-3,-14,-5,-9,-3,5,1,-1,2020-10-21 18:07:30.004
3,7,-12,-3,10,27,7,1,2020-10-21 18:07:30.021
-2,-11,7,-1,-5,-11,0,-5,2020-10-21 18:07:30.038
-2,0,-17,19,15,10,0,-3,2020-10-21 18:07:30.054
1,-3,0,4,7,8,0,-2,2020-10-21 18:07:30.071
-19,-48,18,-17,-15,-20,-8,3,2020-10-21 18:07:30.087
1,-2,2,16,17,37,12,-3,2020-10-21 18:07:30.104
2,2,-13,-5,-13,-15,-7,3,2020-10-21 18:07:30.121
6,11,2,8,-3,-6,-2,-4,2020-10-21 18:07:30.138
-11,-25,10,-14,-12,-13,-6,-3,2020-10-21 18:07:30.155
-1,1,0,4,10,12,0,-1,2020-10-21 18:07:30.171
-4,-8,2,-25,-12,-13,-3,-1,2020-10-21 18:07:30.188
1,4,-10,10,8,9,2,1,2020-10-21 18:07:30.205
-3,-1,-8,1,-4,0,-3,-2,2020-10-21 18:07:30.222
7,17,-11,9,12,10,-1,-2,2020-10-21 18:07:30.238
-6,-25,9,5,-3,-1,-4,-1,2020-10-21 18:07:30.255
-7,-23,14,16,4,-2,0,-4,2020-10-21 18:07:30.272
0,-5,10,-2,-2,-16,-6,0,2020-10-21 18:07:30.288
3,17,5,1,4,-4,-2,2,2020-10-21 18:07:30.305
2,1,8,7,10,21,2,4,2020-10-21 18:07:30.322
-11,-24,-2,25,-9,-6,1,2,2020-10-21 18:07:30.339
-11,-24,-2,25,-9,-6,1,-1,2020-10-21 18:07:30.355
-2,10,0,-1,0,-9,-3,-1,2020-10-21 18:07:30.372
-2,-9,-2,-5,-1,18,3,-3,2020-10-21 18:07:30.388
-1,-4,-1,-3,-10,-17,-4,0,2020-10-21 18:07:30.404
4,-1,-13,1,0,2,4,-1,2020-10-21 18:07:30.421
15,53,-20,-44,-32,-33,-4,-1,2020-10-21 18:07:30.438
-1,-5,-17,11,4,-1,2,1,2020-10-21 18:07:30.455
-1,3,4,-13,-4,-13,-4,3,2020-10-21 18:07:30.471
0,6,-14,5,2,-2,-2,-1,2020-10-21 18:07:30.488
-5,-15,8,-5,-1,4,-2,-4,2020-10-21 18:07:30.504
-4,-13,-23,31,15,9,4,-2,2020-10-21 18:07:30.522
-3,-1,-4,3,-7,-8,-4,-2,2020-10-21 18:07:30.538
-4,-19,7,13,9,9,0,1,2020-10-21 18:07:30.555
5,16,-6,-8,-5,-10,-3,0,2020-10-21 18:07:30.572
5,5,0,-4,-6,-1,0,5,2020-10-21 18:07:30.589
-2,-2,0,11,13,9,-1,-3,2020-10-21 18:07:30.605
-1,-4,-3,-9,-2,8,-4,1,2020-10-21 18:07:30.622
-2,-4,-2,0,-3,-9,-4,-1,2020-10-21 18:07:30.639
-3,-6,-16,-22,-9,-9,-3,0,2020-10-21 18:07:30.656
8,22,23,9,5,1,0,-1,2020-10-21 18:07:30.672
5,2,3,9,-2,-18,-5,5,2020-10-21 18:07:30.689
12,28,3,13,24,40,5,-6,2020-10-21 18:07:30.705
-6,-16,7,-28,-14,-23,-5,-4,2020-10-21 18:07:30.722
-2,-7,-2,3,3,4,4,-2,2020-10-21 18:07:30.739
3,-3,1,3,1,-4,-1,2,2020-10-21 18:07:30.756
-6,-9,2,-5,1,-1,2,-1,2020-10-21 18:07:30.772
-2,10,0,-9,-2,-4,-1,0,2020-10-21 18:07:30.789
4,6,-8,-6,5,14,3,2,2020-10-21 18:07:30.805
-8,-26,7,-2,-11,-17,-8,-1,2020-10-21 18:07:30.822
-1,-1,-3,-5,-4,-8,-2,1,2020-10-21 18:07:30.838
-1,-4,-3,-9,0,5,1,1,2020-10-21 18:07:30.855
3,5,-3,15,2,3,3,1,2020-10-21 18:07:30.872
-9,-18,0,-1,-8,-16,-5,1,2020-10-21 18:07:30.889
6,41,15,9,12,7,0,-4,2020-10-21 18:07:30.905
-1,-9,0,20,6,-2,1,-1,2020-10-21 18:07:30.922
0,-3,-10,-15,-10,0,1,1,2020-10-21 18:07:30.939
-3,-22,-6,-4,-4,-1,-2,-4,2020-10-21 18:07:30.956
3,0,0,-9,-6,6,0,-1,2020-10-21 18:07:30.972
0,-3,-10,3,4,-11,-1,0,2020-10-21 18:07:30.989
7,34,1,14,-3,-4,2,-5,2020-10-21 18:07:31.005
-2,1,14,5,-4,-13,-5,2,2020-10-21 18:07:31.023
-5,-22,13,-5,-7,-23,-6,0,2020-10-21 18:07:31.039
-1,-5,-12,7,-4,-4,-2,-2,2020-10-21 18:07:31.056
-7,-26,7,-7,3,-5,-3,0,2020-10-21 18:07:31.073
-4,-16,18,5,-3,-3,-3,-3,2020-10-21 18:07:31.089
2,0,11,-17,3,9,3,3,2020-10-21 18:07:31.105
-10,-26,4,-12,-11,-5,-2,-1,2020-10-21 18:07:31.123
1,2,-10,-2,-3,-9,2,-1,2020-10-21 18:07:31.139
-9,-14,-24,15,4,-15,-6,-1,2020-10-21 18:07:31.156
-10,-9,-14,-1,-2,1,0,3,2020-10-21 18:07:31.173
1,1,9,3,-4,-21,-5,-1,2020-10-21 18:07:31.189
-6,-5,11,-2,8,19,3,-4,2020-10-21 18:07:31.205
1,0,6,-4,-2,2,-1,0,2020-10-21 18:07:31.222
-1,-4,-11,18,23,32,6,-2,2020-10-21 18:07:31.239
3,1,-7,-3,-4,-1,0,-2,2020-10-21 18:07:31.255
0,4,16,-3,-5,-15,-5,-3,2020-10-21 18:07:31.273
9,36,-7,16,0,9,4,0,2020-10-21 18:07:31.289
8,26,-11,-6,-8,-4,0,-3,2020-10-21 18:07:31.305
-1,-2,-18,4,3,9,1,-1,2020-10-21 18:07:31.323
3,-5,-9,-4,4,16,4,2,2020-10-21 18:07:31.339
-8,-25,-6,13,-1,0,0,-2,2020-10-21 18:07:31.356
-2,3,-23,14,3,3,-1,1,2020-10-21 18:07:31.373
-10,-18,24,-7,-6,-12,-3,1,2020-10-21 18:07:31.390
-1,-9,10,3,14,28,7,-2,2020-10-21 18:07:31.406
-2,-1,4,-12,-1,-3,-1,-1,2020-10-21 18:07:31.423
-2,-3,-14,7,4,0,0,-3,2020-10-21 18:07:31.440
8,11,-6,13,-1,4,1,0,2020-10-21 18:07:31.456
0,0,-17,-29,-13,-9,-4,-2,2020-10-21 18:07:31.473
-1,-1,5,-2,-10,-13,-4,-2,2020-10-21 18:07:31.490
2,17,-2,-11,-8,-4,3,2,2020-10-21 18:07:31.506
-2,-2,-11,1,-14,-23,-8,2,2020-10-21 18:07:31.523
1,-6,4,-22,-9,-5,-4,-3,2020-10-21 18:07:31.540
4,-8,-8,-19,-7,-9,-4,2,2020-10-21 18:07:31.556
-4,-7,10,-7,-5,-5,1,0,2020-10-21 18:07:31.572
2,4,18,23,6,-7,-3,1,2020-10-21 18:07:31.589
-4,-19,13,-3,-6,-2,-4,-5,2020-10-21 18:07:31.606
1,6,10,18,13,14,1,-3,2020-10-21 18:07:31.623
1,6,10,18,13,14,1,-1,2020-10-21 18:07:31.639
-1,2,19,5,-11,-7,-3,1,2020-10-21 18:07:31.656
0,-6,-13,-8,-3,-6,1,-3,2020-10-21 18:07:31.673
4,1,26,-8,-5,-12,-1,-1,2020-10-21 18:07:31.690
2,4,8,27,10,7,1,1,2020-10-21 18:07:31.706
-6,-13,1,-28,-8,-4,-3,0,2020-10-21 18:07:31.723
-1,15,-14,-13,-13,-22,-3,-2,2020-10-21 18:07:31.740
2,8,-14,-1,2,9,1,1,2020-10-21 18:07:31.756
5,9,18,-7,2,4,-1,-4,2020-10-21 18:07:31.773
-4,2,10,19,8,11,-1,-1,2020-10-21 18:07:31.790
1,9,-4,12,-1,-14,-1,1,2020-10-21 18:07:31.806
-2,-10,-4,-18,-6,2,4,1,2020-10-21 18:07:31.823
4,9,2,1,5,30,7,-4,2020-10-21 18:07:31.840
-4,-9,-2,-22,-2,-7,-1,-3,2020-10-21 18:07:31.857
-4,-8,7,-3,-3,-11,-2,-2,2020-10-21 18:07:31.874
-6,-8,14,-2,-7,-9,-3,-1,2020-10-21 18:07:31.889
2,0,14,-4,-3,-13,-7,1,2020-10-21 18:07:31.906
3,0,-7,-4,-10,-13,-5,-2,2020-10-21 18:07:31.923
-2,-10,-13,-8,8,14,5,-4,2020-10-21 18:07:31.940
-4,-6,5,-16,4,1,1,-2,2020-10-21 18:07:31.956
-3,-7,-16,12,4,-15,-5,-3,2020-10-21 18:07:31.973
-4,1,5,-8,-1,2,-2,1,2020-10-21 18:07:31.990
-4,-11,6,-15,-9,-1,1,-1,2020-10-21 18:07:32.006
1,10,8,20,5,9,3,0,2020-10-21 18:07:32.023
-3,-10,11,-15,-8,-3,-3,1,2020-10-21 18:07:32.040
-5,-9,-13,0,-1,7,-2,-4,2020-10-21 18:07:32.057
-1,-5,6,-6,4,8,2,-3,2020-10-21 18:07:32.074
-2,2,21,4,3,-1,-1,3,2020-10-21 18:07:32.090
2,-3,13,2,11,31,2,-3,2020-10-21 18:07:32.106
-3,-15,9,-5,-5,-9,-2,6,2020-10-21 18:07:32.124
-3,-10,16,-2,5,-1,2,0,2020-10-21 18:07:32.140
1,2,8,15,2,4,1,-2,2020-10-21 18:07:32.157
-3,6,14,2,2,7,2,-2,2020-10-21 18:07:32.174
-3,0,7,1,-16,-22,-10,-2,2020-10-21 18:07:32.191
6,25,-10,-7,2,5,4,-1,2020-10-21 18:07:32.207
-4,-17,15,19,-3,-8,-4,-1,2020-10-21 18:07:32.224
5,5,-14,1,17,14,9,-2,2020-10-21 18:07:32.241
0,-23,13,-11,-5,-17,-1,1,2020-10-21 18:07:32.257
-2,-6,-5,-10,-12,-26,-8,1,2020-10-21 18:07:32.274
-4,1,-9,-23,-10,3,1,-3,2020-10-21 18:07:32.290
-1,9,2,-4,8,7,1,1,2020-10-21 18:07:32.307
-4,-11,16,5,5,20,2,-1,2020-10-21 18:07:32.324
-2,-6,3,-6,-3,-11,-2,0,2020-10-21 18:07:32.340
-1,1,-6,-19,-16,-27,-4,-1,2020-10-21 18:07:32.357
3,16,-6,-5,0,11,2,2,2020-10-21 18:07:32.374
14,53,14,4,-2,-5,1,-4,2020-10-21 18:07:32.391
-5,-21,6,16,-1,-10,-6,-1,2020-10-21 18:07:32.407
0,-5,-11,-2,3,18,5,-2,2020-10-21 18:07:32.425
-6,-10,2,0,-10,-14,-3,-2,2020-10-21 18:07:32.441
0,6,-9,1,0,6,2,1,2020-10-21 18:07:32.458
-2,-21,9,-5,-5,-15,-2,-1,2020-10-21 18:07:32.474
1,3,-4,5,-2,-7,0,-3,2020-10-21 18:07:32.491
0,11,11,3,-3,-8,-8,0,2020-10-21 18:07:32.507
-7,-11,8,-9,-1,1,0,2,2020-10-21 18:07:32.523
-5,-20,5,0,4,9,0,0,2020-10-21 18:07:32.541
-3,0,2,-3,4,15,4,0,2020-10-21 18:07:32.558
4,23,6,1,2,8,0,-4,2020-10-21 18:07:32.575
-4,-17,2,-23,-5,-4,-3,-1,2020-10-21 18:07:32.590
-6,-15,5,-1,-2,-1,-2,-2,2020-10-21 18:07:32.607
3,-1,-1,1,0,-1,-1,0,2020-10-21 18:07:32.625
1,-4,2,7,7,3,3,-4,2020-10-21 18:07:32.640
-2,-14,-7,0,-6,-17,-4,-1,2020-10-21 18:07:32.657
-3,-23,-8,1,6,6,4,4,2020-10-21 18:07:32.674
-2,-14,-7,-10,-12,-15,-5,2,2020-10-21 18:07:32.690
-2,0,-1,10,7,21,2,0,2020-10-21 18:07:32.707
-1,-4,-3,-4,2,-7,-4,-1,2020-10-21 18:07:32.724
-5,-1,-12,4,-2,6,3,-5,2020-10-21 18:07:32.741
-1,0,7,-2,-8,-20,-6,0,2020-10-21 18:07:32.758
-1,0,-2,35,1,1,-1,0,2020-10-21 18:07:32.775
2,10,-4,-9,-6,-6,-1,-1,2020-10-21 18:07:32.791
7,23,0,10,-1,0,3,2,2020-10-21 18:07:32.808
0,-3,-1,-15,3,4,-2,-3,2020-10-21 18:07:32.825
3,14,-3,-3,-3,-6,-1,1,2020-10-21 18:07:32.841
2,19,-4,16,7,15,-4,-1,2020-10-21 18:07:32.858
-5,-8,5,-3,-2,-12,-2,-2,2020-10-21 18:07:32.874
2,1,-1,1,4,9,-1,-1,2020-10-21 18:07:32.891
1,-13,6,-14,-2,-5,-2,-4,2020-10-21 18:07:32.907
1,-2,8,-5,-2,-1,0,2,2020-10-21 18:07:32.924
-1,-10,5,1,0,15,-3,1,2020-10-21 18:07:32.941
-4,-4,-9,-26,-1,-5,-2,3,2020-10-21 18:07:32.958
0,7,-13,-10,0,-1,-2,-1,2020-10-21 18:07:32.975
0,-12,13,-2,-1,-6,-3,1,2020-10-21 18:07:32.991
-3,-7,0,-14,-7,-8,1,3,2020-10-21 18:07:33.007
-2,9,-16,37,21,10,-2,-3,2020-10-21 18:07:33.025
-3,-15,0,-14,-1,9,1,0,2020-10-21 18:07:33.041
-1,1,-11,-12,-4,-3,-3,-3,2020-10-21 18:07:33.058
3,8,-16,6,-3,-6,-1,-4,2020-10-21 18:07:33.075
2,11,-11,19,1,16,5,-5,2020-10-21 18:07:33.092
1,11,-9,-42,-5,7,1,2,2020-10-21 18:07:33.108
1,-11,-14,-8,-6,-1,3,-1,2020-10-21 18:07:33.124
-5,-7,17,-3,-8,-8,-7,-1,2020-10-21 18:07:33.141
1,-5,3,4,-3,-4,-1,4,2020-10-21 18:07:33.157
-4,-8,0,-1,-5,-17,-7,-2,2020-10-21 18:07:33.174
-3,4,-7,10,3,-3,-2,0,2020-10-21 18:07:33.191
-6,-15,1,7,-1,-3,-3,1,2020-10-21 18:07:33.207
12,35,-3,-11,-8,1,2,1,2020-10-21 18:07:33.224
-1,-12,6,-3,-4,-6,-3,-2,2020-10-21 18:07:33.241
-3,-19,1,5,7,5,0,-1,2020-10-21 18:07:33.258
11,31,-5,-6,5,8,3,-1,2020-10-21 18:07:33.275
-5,-25,11,-3,3,0,-1,-5,2020-10-21 18:07:33.291
0,5,7,31,11,13,1,1,2020-10-21 18:07:33.308
-4,-12,-11,-2,-2,-1,1,1,2020-10-21 18:07:33.324
3,0,17,5,3,12,2,1,2020-10-21 18:07:33.342
2,2,-19,-1,-3,0,1,-1,2020-10-21 18:07:33.358
1,9,-13,-2,1,3,3,-1,2020-10-21 18:07:33.375
-8,-13,-7,11,6,7,-1,0,2020-10-21 18:07:33.392
-5,-7,-8,-14,-12,-20,-8,2,2020-10-21 18:07:33.409
-2,-7,-11,11,0,-13,0,0,2020-10-21 18:07:33.425
1,-6,-22,6,7,14,3,1,2020-10-21 18:07:33.442
1,-7,7,-11,-2,6,1,-1,2020-10-21 18:07:33.459
-13,-32,-1,-5,-6,-4,-3,0,2020-10-21 18:07:33.476
4,4,-16,-16,9,9,2,5,2020-10-21 18:07:33.491
2,6,-2,2,-5,3,0,-1,2020-10-21 18:07:33.509
-3,-15,15,4,9,0,2,-2,2020-10-21 18:07:33.525
1,3,-5,4,-1,-6,-4,0,2020-10-21 18:07:33.541
5,12,-32,-2,1,0,0,-2,2020-10-21 18:07:33.558
-2,-10,-9,7,-4,-5,-2,0,2020-10-21 18:07:33.575
4,10,-8,-11,1,5,1,-1,2020-10-21 18:07:33.592
13,35,-17,5,-1,-6,2,0,2020-10-21 18:07:33.608
-4,-13,-15,29,6,-4,-4,-3,2020-10-21 18:07:33.625
0,-1,13,10,3,-11,-3,-2,2020-10-21 18:07:33.642
1,13,-8,-7,-7,-5,1,0,2020-10-21 18:07:33.659
0,-5,4,12,4,6,2,-3,2020-10-21 18:07:33.675
-5,-10,-14,-9,-1,-4,2,-1,2020-10-21 18:07:33.692
1,-6,-15,-5,-1,-1,-3,1,2020-10-21 18:07:33.709
1,8,14,-3,2,-5,-1,-3,2020-10-21 18:07:33.725
-5,-8,-2,3,3,-1,-2,-1,2020-10-21 18:07:33.742
-3,-3,13,0,-7,-10,-3,2,2020-10-21 18:07:33.759
0,7,-10,6,-1,8,4,0,2020-10-21 18:07:33.776
0,6,-14,-13,-4,-1,-6,-3,2020-10-21 18:07:33.792
-2,-8,-12,-15,-7,0,-4,-3,2020-10-21 18:07:33.809
3,5,-13,-4,-11,-11,0,-2,2020-10-21 18:07:33.825
-4,-1,11,-9,-4,-4,-3,-2,2020-10-21 18:07:33.843
3,10,-6,3,3,4,-2,-2,2020-10-21 18:07:33.858
-2,-10,-13,-1,-1,2,2,2,2020-10-21 18:07:33.875
6,23,-21,-13,-2,4,0,0,2020-10-21 18:07:33.892
-5,-14,-3,3,0,0,0,2,2020-10-21 18:07:33.908
-8,-17,-4,12,7,11,2,-4,2020-10-21 18:07:33.925
-4,-13,9,10,15,10,0,-3,2020-10-21 18:07:33.942
-4,-10,-18,-4,-2,-7,-1,-1,2020-10-21 18:07:33.959
-4,-6,-11,-2,0,-4,0,2,2020-10-21 18:07:33.975
4,13,-14,-3,0,14,7,-2,2020-10-21 18:07:33.992
-1,-1,-3,5,-1,6,1,1,2020-10-21 18:07:34.009
2,0,19,10,1,-4,0,-1,2020-10-21 18:07:34.025
-3,-14,7,-9,-2,6,-3,2,2020-10-21 18:07:34.042
-4,-1,13,-2,1,-19,-6,-2,2020-10-21 18:07:34.059
-3,-9,-21,10,3,2,0,-3,2020-10-21 18:07:34.076
4,14,-9,9,6,3,2,-1,2020-10-21 18:07:34.093
-4,-12,-14,0,7,17,2,1,2020-10-21 18:07:34.109
-1,-3,-18,14,-6,-18,-3,-2,2020-10-21 18:07:34.126
2,1,6,-12,-9,-22,-7,3,2020-10-21 18:07:34.143
2,2,-23,3,0,5,2,-2,2020-10-21 18:07:34.160
-1,-5,-9,-3,-1,-2,1,0,2020-10-21 18:07:34.176
-6,-7,-14,-11,-2,-1,-3,2,2020-10-21 18:07:34.193
-2,-3,-2,5,6,-4,-1,-4,2020-10-21 18:07:34.210
5,14,-16,-1,-6,-6,-2,-1,2020-10-21 18:07:34.225
-3,-8,15,5,-1,-3,0,-1,2020-10-21 18:07:34.242
2,-3,-29,-7,1,-13,2,1,2020-10-21 18:07:34.259
-3,-16,-24,-6,-3,-1,-2,-5,2020-10-21 18:07:34.275
-2,-3,-7,13,12,18,5,-1,2020-10-21 18:07:34.292
1,6,-13,-2,-8,-1,3,-4,2020-10-21 18:07:34.309
-5,8,4,12,2,0,-1,-1,2020-10-21 18:07:34.325
-1,1,9,29,1,-4,-1,-1,2020-10-21 18:07:34.342
0,1,7,3,5,13,0,0,2020-10-21 18:07:34.359
4,28,-8,4,3,-2,1,0,2020-10-21 18:07:34.376
-4,-12,-11,-19,-11,-9,-6,-2,2020-10-21 18:07:34.393
1,2,22,-3,3,-8,2,0,2020-10-21 18:07:34.409
-4,4,-1,1,-7,-6,-3,-2,2020-10-21 18:07:34.426
-3,-6,11,-7,5,16,3,-1,2020-10-21 18:07:34.443
-3,-8,-5,-4,-6,-14,-6,-2,2020-10-21 18:07:34.460
-6,-12,-11,21,13,5,1,-4,2020-10-21 18:07:34.476
2,1,-12,0,-3,11,3,0,2020-10-21 18:07:34.493
0,0,-9,12,7,-1,-1,-2,2020-10-21 18:07:34.510
5,4,-6,-15,-11,-14,-4,-2,2020-10-21 18:07:34.526
-2,0,-19,-8,-8,-3,-2,2,2020-10-21 18:07:34.543
1,-3,-8,-16,-7,-8,-3,-3,2020-10-21 18:07:34.560
-1,3,-3,8,-3,-19,-6,2,2020-10-21 18:07:34.577
-3,-3,-14,4,3,-1,-4,0,2020-10-21 18:07:34.593
0,0,-6,-7,-2,1,4,0,2020-10-21 18:07:34.609
-1,-5,11,10,-2,0,-1,-2,2020-10-21 18:07:34.625
-3,-5,3,1,-2,-2,-1,-2,2020-10-21 18:07:34.644
0,8,-5,2,-2,-5,-1,1,2020-10-21 18:07:34.659
-2,-4,-7,-5,-4,-5,-1,-1,2020-10-21 18:07:34.676
-2,-6,-13,-15,-6,17,9,0,2020-10-21 18:07:34.693
2,-1,2,-9,-1,1,0,-3,2020-10-21 18:07:34.709
-5,4,-4,10,3,5,0,0,2020-10-21 18:07:34.726
-3,-3,4,5,-2,-9,-3,2,2020-10-21 18:07:34.743
-2,-1,-13,-1,-1,5,2,-4,2020-10-21 18:07:34.760
3,2,11,28,5,4,1,-2,2020-10-21 18:07:34.777
0,2,1,-4,1,-2,-4,-3,2020-10-21 18:07:34.793
-1,-4,-8,9,0,-1,0,-1,2020-10-21 18:07:34.810
0,6,6,16,3,1,-2,-2,2020-10-21 18:07:34.827
-4,-10,-11,-10,-2,0,-1,-1,2020-10-21 18:07:34.844
7,2,-6,35,8,10,2,-3,2020-10-21 18:07:34.860
-3,-6,-5,-16,-7,-6,-4,0,2020-10-21 18:07:34.876
-1,-3,-12,-12,-1,3,3,0,2020-10-21 18:07:34.893
-5,-11,-3,-1,-1,1,-2,-3,2020-10-21 18:07:34.910
-5,-13,4,-7,2,0,-1,2,2020-10-21 18:07:34.926
0,-2,1,-12,-2,-3,-2,-1,2020-10-21 18:07:34.943
-2,-6,3,11,2,4,2,0,2020-10-21 18:07:34.960
-4,-2,-4,-17,-2,3,-3,-1,2020-10-21 18:07:34.977
5,2,-9,-16,-3,-1,-3,-2,2020-10-21 18:07:34.994
0,-1,-5,10,-1,-6,-1,0,2020-10-21 18:07:35.010
-8,-5,-13,-8,-5,-4,-2,-1,2020-10-21 18:07:35.027
1,5,3,11,7,-2,-3,1,2020-10-21 18:07:35.044
-1,0,-3,11,4,-3,-1,1,2020-10-21 18:07:35.060
3,9,-12,-5,-3,6,1,0,2020-10-21 18:07:35.077
4,31,-5,11,0,-4,-2,1,2020-10-21 18:07:35.094
-3,-11,1,-5,-2,-4,-3,-3,2020-10-21 18:07:35.110
2,8,8,-5,4,15,2,-1,2020-10-21 18:07:35.127
-1,-7,13,1,-3,-4,-3,0,2020-10-21 18:07:35.143
0,12,8,3,-5,-7,1,-1,2020-10-21 18:07:35.160
0,-3,2,-12,-5,-5,-1,-1,2020-10-21 18:07:35.177
-1,-6,6,6,3,-1,0,-1,2020-10-21 18:07:35.193
1,-3,1,-1,5,6,2,-1,2020-10-21 18:07:35.210
1,-1,-1,3,1,6,-2,0,2020-10-21 18:07:35.226
3,12,6,-12,-5,-6,-3,-1,2020-10-21 18:07:35.243
-3,0,-8,19,2,4,-2,-1,2020-10-21 18:07:35.260
3,12,-1,12,5,-1,0,-2,2020-10-21 18:07:35.277
-4,1,-10,8,-2,1,1,1,2020-10-21 18:07:35.294
1,10,3,9,2,1,-1,1,2020-10-21 18:07:35.310
0,-3,-11,-21,-3,5,-2,3,2020-10-21 18:07:35.327
2,3,3,-2,6,8,3,-4,2020-10-21 18:07:35.344
0,-1,2,-2,-3,-9,-6,-3,2020-10-21 18:07:35.360
0,-6,-1,33,3,4,-2,-3,2020-10-21 18:07:35.377
-2,0,-4,-9,-3,-11,-3,1,2020-10-21 18:07:35.394
3,8,-2,-12,-8,-9,-3,0,2020-10-21 18:07:35.410
-5,-3,0,-12,-6,12,7,1,2020-10-21 18:07:35.426
6,18,8,-7,10,16,9,1,2020-10-21 18:07:35.444
-7,-26,4,-10,-6,-3,-4,-1,2020-10-21 18:07:35.460
-4,-8,0,-2,2,15,1,0,2020-10-21 18:07:35.477
-4,-8,0,-2,2,15,1,1,2020-10-21 18:07:35.494
-1,-2,-6,-1,10,13,4,-2,2020-10-21 18:07:35.511
1,14,16,-8,-5,-11,0,-4,2020-10-21 18:07:35.527
10,21,-7,-6,-8,-17,1,4,2020-10-21 18:07:35.546
-4,-11,8,-12,-5,-24,-3,-2,2020-10-21 18:07:35.564
5,26,20,-5,-7,-17,-5,1,2020-10-21 18:07:35.579
-2,-5,-6,-22,-17,-26,-5,-3,2020-10-21 18:07:35.599
-2,-3,-17,27,20,32,12,1,2020-10-21 18:07:35.611
3,27,-17,-7,-8,-2,-6,0,2020-10-21 18:07:35.627
-2,-7,-1,-3,-2,27,4,-2,2020-10-21 18:07:35.644
3,-1,10,-4,-4,-13,-4,-1,2020-10-21 18:07:35.661
-5,-9,-17,25,7,1,-2,0,2020-10-21 18:07:35.678
9,30,-5,19,7,2,1,-1,2020-10-21 18:07:35.695
-6,-16,-1,-22,-11,-9,-2,-2,2020-10-21 18:07:35.711
0,-8,-13,-8,17,25,4,-2,2020-10-21 18:07:35.727
-1,-6,0,-2,3,-4,-1,-1,2020-10-21 18:07:35.744
4,1,9,-20,-18,-32,-15,-1,2020-10-21 18:07:35.761
0,2,-1,-7,-2,2,1,-3,2020-10-21 18:07:35.777
-3,-1,-7,13,-3,-5,-1,4,2020-10-21 18:07:35.794
-3,-4,-15,17,9,5,5,1,2020-10-21 18:07:35.811
-6,-15,5,-16,-4,-3,-1,-5,2020-10-21 18:07:35.827
-7,-14,15,-26,-1,-1,-1,2,2020-10-21 18:07:35.844
3,7,6,7,-1,1,-3,-1,2020-10-21 18:07:35.861
2,1,-2,46,1,-7,-1,-3,2020-10-21 18:07:35.878
-2,0,27,-22,-2,1,-2,-1,2020-10-21 18:07:35.894
1,-4,19,20,26,47,19,-5,2020-10-21 18:07:35.911
5,19,-3,-10,-2,3,-1,0,2020-10-21 18:07:35.927
-2,2,21,-9,-6,-11,-7,1,2020-10-21 18:07:35.945
2,5,-14,-3,6,7,3,0,2020-10-21 18:07:35.961
-3,1,8,23,12,7,0,-1,2020-10-21 18:07:35.978
-4,-6,7,-14,-7,3,2,0,2020-10-21 18:07:35.995
-2,-5,0,-7,-5,-5,-3,-2,2020-10-21 18:07:36.012
3,8,-18,-3,-7,-11,-6,-1,2020-10-21 18:07:36.028
2,3,-9,-19,1,14,5,-1,2020-10-21 18:07:36.045
2,-2,16,-6,3,14,2,1,2020-10-21 18:07:36.062
0,0,7,0,1,4,3,-2,2020-10-21 18:07:36.078
-3,-10,17,-1,-8,-18,-4,11,2020-10-21 18:07:36.095
-3,-2,-9,22,4,10,5,13,2020-10-21 18:07:36.111
-6,-3,13,1,-5,-14,-6,-23,2020-10-21 18:07:36.128
-1,0,-13,6,15,28,2,19,2020-10-21 18:07:36.145
2,1,2,0,-9,-20,-6,-5,2020-10-21 18:07:36.161
0,3,-6,-1,-1,-2,-1,-8,2020-10-21 18:07:36.178
-1,-1,-2,-19,-7,-3,-1,3,2020-10-21 18:07:36.194
1,5,14,-28,-1,4,2,-5,2020-10-21 18:07:36.211
-9,-15,-19,20,-9,-14,-13,-1,2020-10-21 18:07:36.227
-6,-5,-16,-14,0,15,1,6,2020-10-21 18:07:36.245
8,6,18,-17,-10,-6,-1,-2,2020-10-21 18:07:36.261
4,17,3,16,4,-4,-1,-1,2020-10-21 18:07:36.278
3,9,5,19,3,-3,-1,-1,2020-10-21 18:07:36.294
5,15,-15,-5,1,5,1,-1,2020-10-21 18:07:36.311
-9,-17,13,-18,-5,5,0,-2,2020-10-21 18:07:36.328
-5,-2,27,17,-2,-7,-3,-1,2020-10-21 18:07:36.344
1,-6,29,-2,4,3,4,2,2020-10-21 18:07:36.362
3,5,2,-1,8,8,0,-2,2020-10-21 18:07:36.378
5,15,10,13,1,18,2,0,2020-10-21 18:07:36.395
-2,-6,-27,-4,-6,4,-1,-1,2020-10-21 18:07:36.412
-3,-6,-12,8,7,22,3,-2,2020-10-21 18:07:36.428
-2,-12,3,0,-5,-5,-3,-1,2020-10-21 18:07:36.445
-4,-7,20,-6,12,20,1,-1,2020-10-21 18:07:36.462
5,5,-2,9,0,-4,3,-1,2020-10-21 18:07:36.479
-3,-5,-17,-10,-3,0,-2,0,2020-10-21 18:07:36.496
1,-8,2,24,15,8,-3,1,2020-10-21 18:07:36.512
-3,-11,-2,19,-2,-7,2,-4,2020-10-21 18:07:36.529
-2,-5,7,8,-9,-9,-3,-2,2020-10-21 18:07:36.545
5,11,-3,4,-9,-29,-6,-2,2020-10-21 18:07:36.562
0,2,14,-5,1,-1,0,3,2020-10-21 18:07:36.578
0,2,10,-19,2,11,0,3,2020-10-21 18:07:36.595
-2,-2,-18,16,0,-3,1,2,2020-10-21 18:07:36.611
3,17,12,1,-3,-1,-1,-1,2020-10-21 18:07:36.628
-6,-5,12,2,-7,-1,-7,-1,2020-10-21 18:07:36.645
2,2,21,5,2,-8,-2,3,2020-10-21 18:07:36.662
-4,-7,35,17,1,-2,-3,3,2020-10-21 18:07:36.679
1,-10,6,-12,-1,8,5,4,2020-10-21 18:07:36.695
1,-10,6,-12,-1,8,5,-2,2020-10-21 18:07:36.712
5,16,-17,13,13,18,3,-1,2020-10-21 18:07:36.729
-4,-8,-3,-11,-9,-17,-2,-10,2020-10-21 18:07:36.745
3,27,-10,6,3,-3,-1,-12,2020-10-21 18:07:36.763
-1,-14,8,-1,-7,-5,1,4,2020-10-21 18:07:36.778
-1,-14,8,-1,-7,-5,1,-12,2020-10-21 18:07:36.795
7,5,-10,42,21,13,7,27,2020-10-21 18:07:36.812
3,8,-8,-5,-3,1,0,65,2020-10-21 18:07:36.828
1,0,3,-15,-4,7,-4,-51,2020-10-21 18:07:36.845
-5,-7,28,-24,-23,-49,-10,-23,2020-10-21 18:07:36.862
3,11,13,5,-8,-17,-4,-14,2020-10-21 18:07:36.878
4,4,17,-37,10,36,19,-33,2020-10-21 18:07:36.895
-28,-41,-15,23,-1,-13,-8,32,2020-10-21 18:07:36.912
-15,-21,-12,59,6,-4,-4,84,2020-10-21 18:07:36.929
12,47,1,38,-5,-22,-6,19,2020-10-21 18:07:36.945
31,-6,20,7,-6,-13,-11,-19,2020-10-21 18:07:36.962
-42,-22,19,-102,-27,-19,-9,-10,2020-10-21 18:07:36.979
47,77,6,46,59,54,23,6,2020-10-21 18:07:36.996
-61,-75,-6,-31,-3,-4,-13,5,2020-10-21 18:07:37.013
46,56,-9,33,-13,-19,-18,-36,2020-10-21 18:07:37.029
22,-19,7,-40,-22,-30,6,-8,2020-10-21 18:07:37.046
23,13,3,-26,8,53,26,-8,2020-10-21 18:07:37.062
-16,-2,10,63,36,-11,4,-47,2020-10-21 18:07:37.079
-1,12,24,54,9,-2,-4,11,2020-10-21 18:07:37.095
-31,30,-26,-99,-32,14,-9,-13,2020-10-21 18:07:37.112
8,12,-27,-65,15,29,21,-8,2020-10-21 18:07:37.129
-50,17,20,-62,-19,-14,-23,5,2020-10-21 18:07:37.145
0,-3,7,8,7,8,21,34,2020-10-21 18:07:37.162
0,-3,7,8,7,8,21,17,2020-10-21 18:07:37.180
-33,6,-19,-5,-19,-47,-12,-17,2020-10-21 18:07:37.196
15,6,-21,15,59,54,27,-10,2020-10-21 18:07:37.213
-5,8,15,115,35,-20,-15,6,2020-10-21 18:07:37.229
-46,-64,6,-49,-37,-16,-11,-35,2020-10-21 18:07:37.246
-11,-42,6,-63,-7,-6,-35,62,2020-10-21 18:07:37.263
29,8,18,-8,5,-6,-3,25,2020-10-21 18:07:37.280
19,28,-3,2,4,44,15,-51,2020-10-21 18:07:37.296
-6,-28,17,5,-19,-34,-4,61,2020-10-21 18:07:37.313
-19,-48,1,44,-9,6,-4,-1,2020-10-21 18:07:37.330
49,74,12,20,9,30,20,-24,2020-10-21 18:07:37.346
-16,-21,-5,10,-1,8,-4,-4,2020-10-21 18:07:37.363
21,-15,8,-1,-7,23,31,-24,2020-10-21 18:07:37.380
35,24,19,25,-20,-79,-12,12,2020-10-21 18:07:37.396
-61,-29,-6,80,3,-17,-21,-19,2020-10-21 18:07:37.412
26,-13,14,38,0,-28,18,-15,2020-10-21 18:07:37.430
8,-31,10,-61,1,39,7,-26,2020-10-21 18:07:37.446
10,37,-37,-1,10,26,2,7,2020-10-21 18:07:37.463
27,-2,-83,-28,-12,3,-1,-15,2020-10-21 18:07:37.480
-28,-13,-80,-48,-12,-12,-11,55,2020-10-21 18:07:37.501
29,22,31,6,16,35,24,-24,2020-10-21 18:07:37.514
-23,28,-64,10,11,-28,-19,64,2020-10-21 18:07:37.529
21,29,-42,10,21,26,14,49,2020-10-21 18:07:37.546
-50,-108,-52,-3,3,9,-15,-6,2020-10-21 18:07:37.563
-15,-16,-35,-92,-11,26,1,-17,2020-10-21 18:07:37.580
-38,96,-27,89,16,-27,-5,-15,2020-10-21 18:07:37.596
66,59,33,-29,31,50,38,-96,2020-10-21 18:07:37.612
-1,-25,-3,-7,18,18,-3,-98,2020-10-21 18:07:37.629
10,-1,-38,21,1,21,10,20,2020-10-21 18:07:37.645
74,35,10,127,73,104,93,37,2020-10-21 18:07:37.663
-13,-4,11,-95,-29,-12,-3,-57,2020-10-21 18:07:37.680
-79,-26,-24,-55,-19,-9,-40,-47,2020-10-21 18:07:37.696
22,66,-13,11,-12,0,39,8,2020-10-21 18:07:37.713
-96,-68,22,-32,4,-23,-51,28,2020-10-21 18:07:37.729
-100,-4,14,-26,-9,-24,-46,-66,2020-10-21 18:07:37.746
-42,-18,-28,-65,-25,-52,-32,-107,2020-10-21 18:07:37.763
41,25,-15,-15,-46,-57,21,-5,2020-10-21 18:07:37.780
-84,32,-28,-92,-31,0,-35,-81,2020-10-21 18:07:37.797
-13,46,-7,50,27,-8,-6,21,2020-10-21 18:07:37.813
35,-47,-47,-69,-54,-34,-22,-42,2020-10-21 18:07:37.830
20,-7,-17,-78,-9,36,20,-9,2020-10-21 18:07:37.846
-47,40,15,2,21,65,14,95,2020-10-21 18:07:37.863
-55,-8,25,62,12,-30,-38,77,2020-10-21 18:07:37.880
-67,-54,28,-95,-19,30,9,-54,2020-10-21 18:07:37.897
-68,41,1,-34,-9,5,-22,7,2020-10-21 18:07:37.914
104,47,-68,25,10,5,67,-43,2020-10-21 18:07:37.930
-57,-65,-98,-79,-37,-33,-49,-14,2020-10-21 18:07:37.946
18,42,-21,-10,23,45,30,-20,2020-10-21 18:07:37.963
55,14,-14,6,2,6,52,-20,2020-10-21 18:07:37.980
46,-18,57,-46,6,-24,51,31,2020-10-21 18:07:37.997
88,-76,30,-69,-17,-40,61,25,2020-10-21 18:07:38.013
127,-45,48,-48,7,-7,127,21,2020-10-21 18:07:38.030
-123,-3,107,60,-9,15,11,33,2020-10-21 18:07:38.046
-127,79,31,88,9,30,-109,-1,2020-10-21 18:07:38.063
-64,102,-4,25,1,27,-121,-14,2020-10-21 18:07:38.080
-64,102,-4,25,1,27,-121,-2,2020-10-21 18:07:38.097
21,41,-13,-6,3,11,-31,-6,2020-10-21 18:07:38.113
16,-17,-30,-16,-1,-7,-10,-6,2020-10-21 18:07:38.130
25,-6,-1,19,15,0,28,-2,2020-10-21 18:07:38.147
31,-9,-15,-49,-9,-13,29,-4,2020-10-21 18:07:38.163
10,-25,-5,-5,-14,-4,5,1,2020-10-21 18:07:38.180
-1,-2,-32,-33,-2,-5,12,0,2020-10-21 18:07:38.197
8,-8,19,-14,-4,-2,14,-1,2020-10-21 18:07:38.214
-2,-14,24,1,1,3,15,-4,2020-10-21 18:07:38.231
-3,-4,5,12,10,-3,7,-1,2020-10-21 18:07:38.247
-1,0,-9,14,-1,-5,8,2,2020-10-21 18:07:38.264
2,-11,-9,-5,15,-1,6,5,2020-10-21 18:07:38.281
2,-16,14,-10,-1,2,7,-1,2020-10-21 18:07:38.297
4,8,14,-4,-5,-3,4,2,2020-10-21 18:07:38.314
1,-1,-6,-5,-12,-3,2,10,2020-10-21 18:07:38.331
-7,-25,-25,6,32,-6,-5,-1,2020-10-21 18:07:38.346
1,0,0,-4,-12,-2,4,-1,2020-10-21 18:07:38.363
5,35,12,7,-2,1,3,-2,2020-10-21 18:07:38.380
11,13,7,4,8,4,6,2,2020-10-21 18:07:38.397
-4,-18,-8,-1,-8,-2,-1,-2,2020-10-21 18:07:38.414
2,21,-5,-4,-2,-1,1,-2,2020-10-21 18:07:38.430
13,25,30,10,2,7,9,0,2020-10-21 18:07:38.447
1,2,-9,0,12,2,0,-3,2020-10-21 18:07:38.464
1,2,-9,0,12,2,0,-70,2020-10-21 18:07:38.480
-6,-11,-27,-11,-22,-4,-1,1,2020-10-21 18:07:38.497
2,0,-38,13,21,8,-1,-9,2020-10-21 18:07:38.514
-3,-6,20,-1,-12,-2,0,0,2020-10-21 18:07:38.531
0,11,-50,4,-4,-1,-3,12,2020-10-21 18:07:38.547
-17,-24,54,-9,-11,-10,-5,-4,2020-10-21 18:07:38.564
4,1,14,-1,-9,-23,-36,-10,2020-10-21 18:07:38.581
-12,4,-54,2,4,21,26,12,2020-10-21 18:07:38.598
-2,-18,-18,-6,-7,-1,0,-13,2020-10-21 18:07:38.614
22,21,-14,14,14,26,38,-20,2020-10-21 18:07:38.631
-5,-19,-19,7,6,3,7,25,2020-10-21 18:07:38.647
13,8,24,4,1,18,36,-6,2020-10-21 18:07:38.665
30,22,43,11,13,26,21,-17,2020-10-21 18:07:38.681
-37,-24,-10,-9,-10,-49,-46,-51,2020-10-21 18:07:38.697
13,16,-7,-6,0,18,11,-11,2020-10-21 18:07:38.714
-1,-9,-13,2,3,-23,-42,10,2020-10-21 18:07:38.730
-20,33,23,9,20,16,37,-2,2020-10-21 18:07:38.747
-16,-15,-1,-12,-13,-5,-1,4,2020-10-21 18:07:38.764
2,-7,-15,-5,48,35,36,-5,2020-10-21 18:07:38.781
-7,-2,4,-16,-65,-67,-60,-13,2020-10-21 18:07:38.797
-4,-19,-5,-6,1,-70,-67,-3,2020-10-21 18:07:38.814
-5,43,22,2,-50,-28,-48,9,2020-10-21 18:07:38.831
11,-20,9,-10,-16,30,47,-4,2020-10-21 18:07:38.847
1,-16,-45,6,-8,-16,-36,16,2020-10-21 18:07:38.864
1,-27,-43,1,-11,-1,33,-8,2020-10-21 18:07:38.881
-7,-72,-40,-14,-40,4,7,-17,2020-10-21 18:07:38.898
-12,-13,-22,-7,-12,-5,2,-27,2020-10-21 18:07:38.915
-8,-6,-3,-8,-9,-2,6,0,2020-10-21 18:07:38.931
26,-4,-12,0,15,7,9,-7,2020-10-21 18:07:38.947
-11,-57,-71,-21,-48,-12,0,-4,2020-10-21 18:07:38.965
1,9,18,14,12,19,24,-9,2020-10-21 18:07:38.981
-12,-1,-21,-13,-36,-5,5,2,2020-10-21 18:07:38.998
-13,-8,8,2,8,-13,-31,-3,2020-10-21 18:07:39.015
-23,20,-31,-5,-14,-13,-19,2,2020-10-21 18:07:39.032
15,30,14,6,14,-3,-8,-10,2020-10-21 18:07:39.047
-18,-14,14,3,5,3,0,3,2020-10-21 18:07:39.064
-2,13,24,-2,-6,-3,-2,-12,2020-10-21 18:07:39.081
-13,1,-7,-12,4,-3,-12,8,2020-10-21 18:07:39.097
1,-4,-4,16,-2,2,1,-12,2020-10-21 18:07:39.114
-15,-6,-11,4,8,4,6,7,2020-10-21 18:07:39.131
-4,-9,14,2,1,-5,-4,-6,2020-10-21 18:07:39.147
16,47,18,14,1,-8,-10,2,2020-10-21 18:07:39.164
-2,-14,-49,8,0,12,19,-2,2020-10-21 18:07:39.181
-14,17,18,2,1,-7,-10,10,2020-10-21 18:07:39.198
17,-11,2,18,2,-2,-3,2,2020-10-21 18:07:39.215
-25,-20,-32,-18,-9,-9,-13,1,2020-10-21 18:07:39.231
9,32,3,0,2,5,12,11,2020-10-21 18:07:39.248
-8,16,-5,-3,-2,-2,-1,-6,2020-10-21 18:07:39.265
-11,-27,9,-1,-4,-6,-6,-6,2020-10-21 18:07:39.282
-6,-26,1,-2,1,-8,-9,-3,2020-10-21 18:07:39.298
-1,-5,-10,-2,1,12,22,-8,2020-10-21 18:07:39.315
6,-14,-6,5,3,1,3,-2,2020-10-21 18:07:39.332
5,-3,-7,-5,-2,-4,1,2,2020-10-21 18:07:39.348
24,-2,29,16,8,13,24,4,2020-10-21 18:07:39.365
-4,-8,2,0,0,0,-1,-7,2020-10-21 18:07:39.382
-6,-2,-3,-2,0,-2,-6,-1,2020-10-21 18:07:39.399
-7,0,-1,-3,4,3,-1,-12,2020-10-21 18:07:39.414
-7,4,-9,-6,-9,-7,-9,-1,2020-10-21 18:07:39.431
-3,-9,-4,-1,2,-1,-7,4,2020-10-21 18:07:39.448
-4,-8,-9,-1,1,-2,0,-6,2020-10-21 18:07:39.464
5,1,-6,0,-4,7,9,-3,2020-10-21 18:07:39.481
-6,-3,-5,0,-3,-6,-8,1,2020-10-21 18:07:39.498
-4,-17,-7,-7,-11,1,1,9,2020-10-21 18:07:39.515
-15,-1,2,-1,-6,-6,-9,-8,2020-10-21 18:07:39.531
9,8,0,1,0,-5,-11,3,2020-10-21 18:07:39.548
5,17,25,4,2,4,4,-8,2020-10-21 18:07:39.565
-6,1,-9,-17,-25,-6,-2,1,2020-10-21 18:07:39.581
-11,-9,8,-7,-55,-8,-1,-1,2020-10-21 18:07:39.599
5,54,-2,4,15,-4,-5,-3,2020-10-21 18:07:39.615
12,11,10,10,14,8,7,-3,2020-10-21 18:07:39.632
-7,0,-14,-3,11,-2,-5,0,2020-10-21 18:07:39.648
-3,-3,18,-2,-8,0,1,6,2020-10-21 18:07:39.665
-6,-42,-16,-12,-19,-2,-5,-5,2020-10-21 18:07:39.682
0,34,5,1,-11,-1,-2,1,2020-10-21 18:07:39.699
2,2,2,-1,1,-2,-2,-6,2020-10-21 18:07:39.716
-2,0,0,0,3,0,-3,-9,2020-10-21 18:07:39.732
-5,-10,-2,-2,0,-1,-1,-2,2020-10-21 18:07:39.749
3,12,4,0,3,1,0,2,2020-10-21 18:07:39.765
1,-1,0,0,-8,-2,3,-2,2020-10-21 18:07:39.782
-7,-13,-3,0,0,-3,-2,1,2020-10-21 18:07:39.798
6,5,1,-12,0,1,0,-5,2020-10-21 18:07:39.815
-1,16,-2,1,1,-1,-3,7,2020-10-21 18:07:39.832
-15,-9,-6,1,-1,-4,-6,-3,2020-10-21 18:07:39.848
3,3,9,3,2,-1,-4,3,2020-10-21 18:07:39.865
1,4,2,-2,-2,1,4,-4,2020-10-21 18:07:39.882
-1,0,-1,-2,0,-1,-1,-5,2020-10-21 18:07:39.899
3,-4,-2,-1,-1,-2,-1,0,2020-10-21 18:07:39.915
-6,-2,-1,0,-3,-1,0,-10,2020-10-21 18:07:39.932
11,1,-5,0,-2,0,3,-7,2020-10-21 18:07:39.949
-3,-5,-6,-5,-2,-2,-4,-1,2020-10-21 18:07:39.965
6,-6,4,3,2,0,2,-2,2020-10-21 18:07:39.982
-2,19,2,-1,0,-3,-5,-1,2020-10-21 18:07:39.999
0,-1,10,0,-4,-3,-3,1,2020-10-21 18:07:40.016
-2,0,-3,0,3,-2,-2,-2,2020-10-21 18:07:40.032
-14,2,-7,-2,3,-4,-7,-3,2020-10-21 18:07:40.049
-17,-14,3,3,3,3,2,-6,2020-10-21 18:07:40.065
-3,-18,3,-1,-2,-4,-3,-2,2020-10-21 18:07:40.082
-1,6,-2,-2,-2,1,0,-2,2020-10-21 18:07:40.099
0,-5,-3,-7,-13,-4,-6,18,2020-10-21 18:07:40.116
4,-4,2,1,2,-3,0,2,2020-10-21 18:07:40.133
-2,2,2,-1,-2,-2,-5,0,2020-10-21 18:07:40.149
0,-5,-5,2,21,2,-3,8,2020-10-21 18:07:40.165
-6,-8,-11,-3,7,-1,-4,-6,2020-10-21 18:07:40.183
4,24,18,5,-22,-14,-4,-4,2020-10-21 18:07:40.199
1,18,-24,-4,-9,-2,-4,-3,2020-10-21 18:07:40.216
25,23,39,19,33,-1,14,-3,2020-10-21 18:07:40.232
-6,-4,-31,21,-81,3,5,8,2020-10-21 18:07:40.249
-4,-22,-10,-17,-9,-1,0,-4,2020-10-21 18:07:40.265
4,-9,3,-1,-1,1,5,-1,2020-10-21 18:07:40.283
16,47,22,18,26,5,-6,-3,2020-10-21 18:07:40.299
-14,-47,-22,-65,0,2,-2,-4,2020-10-21 18:07:40.316
4,24,-20,-22,-4,-7,-5,4,2020-10-21 18:07:40.333
-12,-56,-6,-29,1,1,-3,11,2020-10-21 18:07:40.349
18,22,26,37,18,6,7,-2,2020-10-21 18:07:40.366
-12,-17,-15,-9,-17,-6,-3,3,2020-10-21 18:07:40.383
20,-12,-1,-9,3,0,0,3,2020-10-21 18:07:40.399
-3,12,10,11,7,0,0,-5,2020-10-21 18:07:40.416
-2,6,3,12,2,1,-4,0,2020-10-21 18:07:40.432
-4,-16,-10,1,3,3,3,-1,2020-10-21 18:07:40.449
5,20,5,10,12,9,11,-14,2020-10-21 18:07:40.466
3,20,1,-1,1,-1,-8,-2,2020-10-21 18:07:40.483
6,18,34,5,3,1,3,-2,2020-10-21 18:07:40.499
6,-11,-4,-2,-1,0,-5,3,2020-10-21 18:07:40.516
-11,-17,-16,-2,-1,-1,-1,0,2020-10-21 18:07:40.533
-9,-34,-25,-7,-7,-3,1,-3,2020-10-21 18:07:40.550
13,-4,-8,5,-2,-1,1,-3,2020-10-21 18:07:40.566
-18,-17,10,0,-4,-9,-9,-8,2020-10-21 18:07:40.583
-20,-9,1,-4,-3,-1,5,0,2020-10-21 18:07:40.600
-8,4,0,-13,-3,-6,-6,-2,2020-10-21 18:07:40.616
10,23,21,18,8,7,3,-3,2020-10-21 18:07:40.633
9,17,9,10,3,1,2,1,2020-10-21 18:07:40.650
0,-5,-1,0,-5,-2,-5,3,2020-10-21 18:07:40.666
-1,-7,31,-1,2,-15,1,1,2020-10-21 18:07:40.683
-3,2,-4,3,-4,-5,-15,-1,2020-10-21 18:07:40.699
-9,14,-4,-17,-4,-11,-3,1,2020-10-21 18:07:40.716
0,-11,3,8,7,12,-4,-4,2020-10-21 18:07:40.733
1,-8,-3,2,1,13,2,-7,2020-10-21 18:07:40.750
-3,-23,3,10,-2,0,-1,5,2020-10-21 18:07:40.766
4,-9,2,9,13,6,1,13,2020-10-21 18:07:40.783
3,9,-3,-4,-9,3,1,-10,2020-10-21 18:07:40.800
0,6,1,-1,-4,-2,2,7,2020-10-21 18:07:40.817
1,-15,-5,2,1,2,-3,-4,2020-10-21 18:07:40.833
-9,-16,-5,11,10,10,2,-3,2020-10-21 18:07:40.850
-6,23,11,-7,-13,-3,-5,-4,2020-10-21 18:07:40.867
8,-31,-2,6,-1,0,-15,2,2020-10-21 18:07:40.884
34,82,32,9,-3,5,9,2,2020-10-21 18:07:40.900
-10,4,-3,-22,-18,-27,-15,5,2020-10-21 18:07:40.916
3,-27,3,7,5,8,6,0,2020-10-21 18:07:40.933
-10,14,-6,-10,-3,2,-4,-1,2020-10-21 18:07:40.950
0,34,-5,32,7,6,-3,-4,2020-10-21 18:07:40.967
-3,-10,-3,7,0,-3,0,0,2020-10-21 18:07:40.983
5,6,-20,-25,-13,-19,2,-5,2020-10-21 18:07:41.000
1,47,26,13,9,11,2,5,2020-10-21 18:07:41.017
11,-5,-1,-3,-17,-37,-13,-3,2020-10-21 18:07:41.034
3,27,4,-7,-14,-36,-12,4,2020-10-21 18:07:41.051
2,-7,-5,-11,-33,-55,-19,-3,2020-10-21 18:07:41.066
-7,-14,-4,11,24,9,0,-5,2020-10-21 18:07:41.084
-4,-12,-13,-5,3,20,4,5,2020-10-21 18:07:41.100
-4,-14,-10,-1,10,11,-2,10,2020-10-21 18:07:41.117
4,8,9,17,19,36,15,-6,2020-10-21 18:07:41.133
-1,21,-4,-22,-13,-22,-2,-3,2020-10-21 18:07:41.150
3,6,14,-4,13,4,3,-8,2020-10-21 18:07:41.166
-4,-15,0,15,-2,-8,-3,7,2020-10-21 18:07:41.183
-6,18,-7,-2,-12,-12,-3,-1,2020-10-21 18:07:41.200
0,8,-5,-35,-5,8,3,-1,2020-10-21 18:07:41.217
9,-39,4,8,9,43,19,-4,2020-10-21 18:07:41.233
-3,3,20,-1,8,6,-3,0,2020-10-21 18:07:41.250
-3,-4,20,12,13,12,3,0,2020-10-21 18:07:41.266
-4,5,-23,-15,-16,-32,-11,-5,2020-10-21 18:07:41.283
3,-31,-40,26,33,27,18,-8,2020-10-21 18:07:41.300
6,-12,-52,-36,-38,-57,-18,-2,2020-10-21 18:07:41.317
3,9,18,-9,-4,28,-3,11,2020-10-21 18:07:41.334
-5,-15,-16,-5,-12,-31,-11,4,2020-10-21 18:07:41.350
0,-23,-13,7,13,24,4,0,2020-10-21 18:07:41.367
0,-23,-13,7,13,24,4,4,2020-10-21 18:07:41.384
-4,-5,-13,-48,-43,-82,-24,2,2020-10-21 18:07:41.400
-15,-39,36,26,13,11,1,4,2020-10-21 18:07:41.417
-3,-15,-43,-19,-9,-18,-4,-5,2020-10-21 18:07:41.434
2,25,-3,15,32,68,28,5,2020-10-21 18:07:41.451
3,3,24,15,7,10,6,-2,2020-10-21 18:07:41.467
10,20,41,4,-10,-17,-8,1,2020-10-21 18:07:41.484
5,-4,19,8,30,44,8,4,2020-10-21 18:07:41.501
1,7,-30,3,9,12,6,4,2020-10-21 18:07:41.518
11,20,55,-2,-9,2,2,-15,2020-10-21 18:07:41.534
-3,4,0,3,-26,-42,-14,-12,2020-10-21 18:07:41.551
10,33,25,10,27,32,13,17,2020-10-21 18:07:41.567
-4,-5,-5,2,-7,-12,-3,-7,2020-10-21 18:07:41.584
6,8,7,-2,-27,-29,-14,-5,2020-10-21 18:07:41.601
1,4,5,0,-6,-6,0,10,2020-10-21 18:07:41.617
7,28,21,5,27,44,17,-1,2020-10-21 18:07:41.634
-19,-3,-11,-10,-17,-22,-15,2,2020-10-21 18:07:41.650
-12,6,6,5,3,8,-3,-13,2020-10-21 18:07:41.667
22,-84,5,9,19,44,16,-3,2020-10-21 18:07:41.684
-11,24,-5,-12,-30,-45,-16,-1,2020-10-21 18:07:41.700
6,-18,-1,-1,-26,-48,-34,-2,2020-10-21 18:07:41.717
20,81,16,6,12,9,13,9,2020-10-21 18:07:41.734
9,-92,-6,2,-20,-9,-15,-3,2020-10-21 18:07:41.750
8,21,24,10,11,20,5,1,2020-10-21 18:07:41.767
-14,-16,-13,-9,-28,-44,-16,-8,2020-10-21 18:07:41.784
0,-5,8,-1,-5,-7,-9,-5,2020-10-21 18:07:41.800
-11,15,-10,-6,2,4,6,-2,2020-10-21 18:07:41.817
-1,27,7,-5,-3,-10,-6,-8,2020-10-21 18:07:41.834
20,-25,-4,4,2,-2,1,2,2020-10-21 18:07:41.851
-12,-21,-11,-5,6,11,29,4,2020-10-21 18:07:41.867
2,-8,-6,6,16,-3,-2,2,2020-10-21 18:07:41.884
-9,-10,-5,0,-2,-7,-10,-3,2020-10-21 18:07:41.901
-5,-1,2,-3,-1,1,-6,-5,2020-10-21 18:07:41.918
-11,-25,-13,-5,-1,6,0,6,2020-10-21 18:07:41.934
-16,-10,-9,-2,-2,3,-5,-7,2020-10-21 18:07:41.951
3,-1,8,-1,-3,3,3,5,2020-10-21 18:07:41.967
2,-15,-20,-12,2,7,4,-10,2020-10-21 18:07:41.985
1,10,-1,28,3,1,0,6,2020-10-21 18:07:42.001
-2,8,12,2,5,6,-2,-1,2020-10-21 18:07:42.018
-4,-23,1,1,8,6,-2,-1,2020-10-21 18:07:42.035
8,24,13,5,-2,-2,3,-4,2020-10-21 18:07:42.051
-9,-26,6,-7,-5,-9,-6,-7,2020-10-21 18:07:42.067
3,-6,-12,-13,-4,0,1,8,2020-10-21 18:07:42.085
-12,23,-3,-3,0,3,-5,-13,2020-10-21 18:07:42.102
6,-13,-5,11,1,0,6,1,2020-10-21 18:07:42.118
-2,-5,-17,-13,1,-5,-7,4,2020-10-21 18:07:42.135
-3,-9,-14,-3,-4,-8,-1,-3,2020-10-21 18:07:42.152
-2,4,-10,-14,-6,-7,-8,-5,2020-10-21 18:07:42.167
-10,-25,7,3,-8,-4,-6,-2,2020-10-21 18:07:42.184
15,20,41,4,1,2,3,2,2020-10-21 18:07:42.201
-21,-46,-48,-24,-14,-8,-11,1,2020-10-21 18:07:42.218
-5,-43,42,29,8,3,-2,4,2020-10-21 18:07:42.235
3,7,23,21,29,15,9,-2,2020-10-21 18:07:42.251
-11,-14,10,-13,-6,-2,-1,-18,2020-10-21 18:07:42.267
8,23,-23,-29,-17,-8,-5,6,2020-10-21 18:07:42.284
-5,7,33,-2,-5,-2,2,-3,2020-10-21 18:07:42.301
7,9,-32,-5,-1,2,0,-7,2020-10-21 18:07:42.318
3,4,-18,2,-1,1,1,-10,2020-10-21 18:07:42.335
14,-2,11,3,-1,-2,3,7,2020-10-21 18:07:42.351
-3,-2,11,-7,-4,1,3,1,2020-10-21 18:07:42.367
-42,-8,2,-1,-1,-5,-2,-4,2020-10-21 18:07:42.385
0,3,-3,1,2,3,5,3,2020-10-21 18:07:42.402
-2,1,4,4,0,1,0,-8,2020-10-21 18:07:42.418
-10,-7,-6,-7,-4,-4,-4,10,2020-10-21 18:07:42.435
-16,-11,-2,-2,1,7,-4,-12,2020-10-21 18:07:42.452
4,9,18,4,0,2,7,2,2020-10-21 18:07:42.469
0,-11,2,7,16,28,9,1,2020-10-21 18:07:42.485
-5,8,8,-1,-1,-2,-3,2,2020-10-21 18:07:42.502
2,1,-1,0,1,4,5,-2,2020-10-21 18:07:42.519
-6,-6,-11,-13,-31,-51,-20,2,2020-10-21 18:07:42.535
21,13,10,13,6,5,5,-4,2020-10-21 18:07:42.552
-26,-24,-8,-11,-9,-7,-9,7,2020-10-21 18:07:42.569
-8,-8,-20,-6,-1,6,2,2,2020-10-21 18:07:42.584
0,-6,15,2,-2,4,0,-1,2020-10-21 18:07:42.601
0,5,12,6,5,7,1,-11,2020-10-21 18:07:42.618
-7,-6,-5,-2,24,-9,36,10,2020-10-21 18:07:42.635
3,7,36,3,3,3,-9,2,2020-10-21 18:07:42.651
-2,-2,-1,0,-4,-6,-4,-10,2020-10-21 18:07:42.668
10,9,-24,-8,0,8,-5,-10,2020-10-21 18:07:42.684
-6,6,-27,4,6,4,3,-6,2020-10-21 18:07:42.702
4,27,-14,-10,-4,2,5,-11,2020-10-21 18:07:42.718
-19,-60,36,-17,-5,-2,-18,-1,2020-10-21 18:07:42.735
25,9,-8,7,3,4,6,8,2020-10-21 18:07:42.752
28,16,16,6,-2,2,-11,6,2020-10-21 18:07:42.768
-25,-38,-39,0,4,5,3,-2,2020-10-21 18:07:42.785
-15,-22,-58,-7,26,2,-10,4,2020-10-21 18:07:42.802
-5,44,0,8,5,0,-8,7,2020-10-21 18:07:42.819
-17,-17,-1,-5,-21,-7,3,-5,2020-10-21 18:07:42.836
13,72,-17,16,5,1,-1,-6,2020-10-21 18:07:42.852
6,24,45,-15,5,5,6,2,2020-10-21 18:07:42.869
3,13,66,19,-11,-6,0,4,2020-10-21 18:07:42.885
-6,-20,-22,-29,-23,-7,-5,-3,2020-10-21 18:07:42.903
4,-13,-1,-7,5,1,2,-3,2020-10-21 18:07:42.919
12,3,-1,4,-5,1,4,2,2020-10-21 18:07:42.935
-13,-14,-4,-15,-4,-8,-7,5,2020-10-21 18:07:42.952
-4,25,45,14,1,4,1,-6,2020-10-21 18:07:42.969
4,9,16,18,7,2,2,-1,2020-10-21 18:07:42.985
-13,-22,5,10,-6,-4,-1,0,2020-10-21 18:07:43.002
-3,-9,9,17,5,-2,-4,0,2020-10-21 18:07:43.018
2,-6,-13,-2,-3,-4,-5,-1,2020-10-21 18:07:43.035
1,2,11,3,1,4,5,2,2020-10-21 18:07:43.052
11,9,-8,-4,4,-2,-5,7,2020-10-21 18:07:43.069
-1,1,10,-6,-2,0,-5,-6,2020-10-21 18:07:43.085
4,1,-1,3,-1,-7,-2,-3,2020-10-21 18:07:43.102
-1,-4,-8,-3,-10,0,0,7,2020-10-21 18:07:43.119
-2,-7,-2,1,2,3,1,-10,2020-10-21 18:07:43.136
-3,-8,6,17,0,-15,-3,-4,2020-10-21 18:07:43.152
0,-4,0,-5,6,12,6,-6,2020-10-21 18:07:43.169
9,-6,1,-3,0,4,4,-1,2020-10-21 18:07:43.185
-10,0,-4,-1,4,11,1,-6,2020-10-21 18:07:43.203
-11,-3,0,-4,-4,-15,-4,5,2020-10-21 18:07:43.219
11,1,0,-4,-2,3,2,-4,2020-10-21 18:07:43.236
-3,0,-10,-5,-14,-23,-15,4,2020-10-21 18:07:43.253
-5,-6,-6,5,6,5,2,-3,2020-10-21 18:07:43.270
-18,-3,-2,11,3,19,6,11,2020-10-21 18:07:43.286
2,-5,4,11,2,-8,-2,-2,2020-10-21 18:07:43.303
-4,1,-6,18,20,12,-2,3,2020-10-21 18:07:43.320
13,1,-4,-14,-3,-6,-5,5,2020-10-21 18:07:43.335
-14,12,12,-3,-7,-5,0,-9,2020-10-21 18:07:43.352
4,-1,-6,28,5,3,2,6,2020-10-21 18:07:43.369
-14,1,-6,0,-5,-7,-2,11,2020-10-21 18:07:43.385
23,9,-5,-3,-10,10,-3,-7,2020-10-21 18:07:43.402
-13,-33,-11,-11,2,3,5,16,2020-10-21 18:07:43.419
9,8,-1,-10,-2,2,0,15,2020-10-21 18:07:43.436
24,6,2,-3,-16,-3,-3,-4,2020-10-21 18:07:43.453
-11,3,3,-9,-3,-2,-3,-7,2020-10-21 18:07:43.469
13,2,-3,0,-2,-4,-2,-10,2020-10-21 18:07:43.486
15,5,5,13,5,-4,17,7,2020-10-21 18:07:43.503
-10,9,3,-10,2,1,-2,7,2020-10-21 18:07:43.520
33,23,5,-22,-14,-13,-4,-12,2020-10-21 18:07:43.536
35,-29,-7,-4,1,5,-19,-5,2020-10-21 18:07:43.553
-4,0,23,-1,2,4,15,7,2020-10-21 18:07:43.570
-13,29,-16,30,5,0,-6,1,2020-10-21 18:07:43.586
-37,0,-7,-19,-6,-6,-4,4,2020-10-21 18:07:43.603
7,26,3,9,13,11,19,0,2020-10-21 18:07:43.620
11,0,12,16,5,14,-15,-6,2020-10-21 18:07:43.637
-13,16,14,-1,0,1,-2,-3,2020-10-21 18:07:43.653
8,65,2,-7,-6,-6,-6,1,2020-10-21 18:07:43.670
16,-3,-9,4,-2,0,4,2,2020-10-21 18:07:43.686
-10,-36,-15,-10,1,7,4,1,2020-10-21 18:07:43.703
-7,-7,-1,1,1,-1,12,-3,2020-10-21 18:07:43.719
-6,-1,3,8,7,2,7,-15,2020-10-21 18:07:43.736
-6,0,4,3,4,-2,-9,4,2020-10-21 18:07:43.753
0,24,49,13,7,2,2,5,2020-10-21 18:07:43.769
-8,16,29,-3,-3,-16,-22,1,2020-10-21 18:07:43.785
6,8,-69,24,9,2,-7,2,2020-10-21 18:07:43.803
5,-36,-32,-11,-2,-13,8,-5,2020-10-21 18:07:43.820
0,-12,-15,-4,0,8,2,12,2020-10-21 18:07:43.836
-12,-3,0,-3,-4,1,-6,-7,2020-10-21 18:07:43.853
14,36,34,2,5,5,-2,-9,2020-10-21 18:07:43.870
9,-10,43,2,1,3,6,4,2020-10-21 18:07:43.886
-6,17,24,-2,-4,-9,8,7,2020-10-21 18:07:43.903
1,-20,-24,-6,0,8,-7,2,2020-10-21 18:07:43.920
-12,36,10,-4,-9,-5,-2,-13,2020-10-21 18:07:43.937
-8,-65,-29,15,3,4,5,-22,2020-10-21 18:07:43.953
-19,-45,-32,1,-1,-1,-4,0,2020-10-21 18:07:43.970
8,75,53,1,-3,-1,-4,7,2020-10-21 18:07:43.986
-1,-33,-11,-5,0,7,7,-5,2020-10-21 18:07:44.004
-2,-6,3,-1,8,11,13,10,2020-10-21 18:07:44.021
-2,24,7,-1,-4,4,-4,-4,2020-10-21 18:07:44.037
-42,39,6,-6,-8,-8,3,0,2020-10-21 18:07:44.054
3,43,3,-4,-4,-8,-14,2,2020-10-21 18:07:44.070
12,-1,-5,-3,-6,-4,0,5,2020-10-21 18:07:44.086
21,66,35,-1,-7,-7,4,-7,2020-10-21 18:07:44.103
-25,-66,-22,-1,-1,-1,4,3,2020-10-21 18:07:44.120
13,6,11,-1,-3,2,2,-7,2020-10-21 18:07:44.137
-10,-9,-5,4,14,1,2,4,2020-10-21 18:07:44.154
-4,-21,13,0,0,1,-4,-3,2020-10-21 18:07:44.170
3,2,2,2,2,-3,-5,6,2020-10-21 18:07:44.186
32,24,-7,-6,-2,-3,1,-3,2020-10-21 18:07:44.204
-11,-1,-5,-5,7,2,-2,0,2020-10-21 18:07:44.220
-3,-26,-4,7,3,0,1,-2,2020-10-21 18:07:44.237
-15,-13,-9,-10,-6,-3,-2,-1,2020-10-21 18:07:44.254
17,28,24,11,13,6,5,1,2020-10-21 18:07:44.271
3,10,5,4,-1,0,0,3,2020-10-21 18:07:44.287
10,3,4,13,3,2,2,11,2020-10-21 18:07:44.303
-6,-6,33,-2,0,-2,-4,9,2020-10-21 18:07:44.320
12,69,61,9,2,-4,-1,9,2020-10-21 18:07:44.337
3,20,6,5,5,5,1,1,2020-10-21 18:07:44.353
0,-29,-65,-12,-4,-6,-4,-20,2020-10-21 18:07:44.370
-1,-22,23,-3,-7,-18,-5,-3,2020-10-21 18:07:44.386
1,-37,49,7,2,5,1,8,2020-10-21 18:07:44.404
18,-62,-19,13,13,-2,5,6,2020-10-21 18:07:44.420
33,106,2,8,3,4,7,14,2020-10-21 18:07:44.437
33,106,2,8,3,4,7,2,2020-10-21 18:07:44.454
6,26,40,8,-4,-5,1,-2,2020-10-21 18:07:44.470
-44,-51,-40,-11,-3,-5,-14,1,2020-10-21 18:07:44.487
-5,-1,10,-10,-13,-7,-2,-22,2020-10-21 18:07:44.504
18,15,-6,-1,-2,-5,-1,6,2020-10-21 18:07:44.521
-14,-34,-14,-1,-2,4,7,-10,2020-10-21 18:07:44.538
-4,-20,-24,-1,1,7,12,-5,2020-10-21 18:07:44.554
8,11,-10,-5,-5,-6,-2,2,2020-10-21 18:07:44.571
7,-4,-22,-3,-1,2,1,16,2020-10-21 18:07:44.587
0,18,39,3,2,1,-1,4,2020-10-21 18:07:44.604
-28,-16,19,6,4,-6,-13,2,2020-10-21 18:07:44.620
4,22,7,0,1,2,3,7,2020-10-21 18:07:44.637
-21,-59,-47,-8,-4,-3,-6,-4,2020-10-21 18:07:44.654
11,26,13,11,4,3,2,-6,2020-10-21 18:07:44.670
6,-34,-8,-2,-1,-3,-2,5,2020-10-21 18:07:44.686
5,52,3,6,1,3,5,-27,2020-10-21 18:07:44.704
8,-17,-13,0,-2,1,6,-15,2020-10-21 18:07:44.721
-2,-59,-22,-2,-2,-6,-8,12,2020-10-21 18:07:44.737
17,-8,-1,-3,-1,3,7,-13,2020-10-21 18:07:44.754
-11,-39,12,-7,-4,-3,-3,-1,2020-10-21 18:07:44.771
-5,-37,-26,-6,-4,0,-2,-12,2020-10-21 18:07:44.787
-13,13,13,0,-2,-3,5,7,2020-10-21 18:07:44.804
-22,-4,-17,0,2,-6,-10,7,2020-10-21 18:07:44.821
-31,-6,6,-3,-4,-3,-8,11,2020-10-21 18:07:44.838
9,-38,-46,0,1,5,7,4,2020-10-21 18:07:44.854
-21,0,36,-13,-5,-11,-17,2,2020-10-21 18:07:44.871
-54,-43,-33,-21,-12,-16,-24,-10,2020-10-21 18:07:44.887
26,-22,-54,-6,-6,8,6,-11,2020-10-21 18:07:44.904
-24,14,10,0,0,14,13,7,2020-10-21 18:07:44.921
12,6,15,5,25,3,-7,4,2020-10-21 18:07:44.938
11,25,12,-15,-7,-5,2,11,2020-10-21 18:07:44.954
25,43,48,7,3,-8,-13,-9,2020-10-21 18:07:44.971
16,-19,25,17,-5,-16,-28,32,2020-10-21 18:07:44.987
-11,-37,8,4,5,-7,-30,6,2020-10-21 18:07:45.004
-10,0,-1,11,16,-7,-7,16,2020-10-21 18:07:45.021
14,32,52,-7,29,-3,-12,34,2020-10-21 18:07:45.038
8,24,-2,-4,-11,-5,-10,-14,2020-10-21 18:07:45.054
15,21,-4,-9,-27,-8,-10,-35,2020-10-21 18:07:45.071
-22,3,21,-6,-5,10,5,9,2020-10-21 18:07:45.087
28,-52,0,2,-28,18,21,-10,2020-10-21 18:07:45.105
9,21,-24,-5,-7,0,8,-9,2020-10-21 18:07:45.121
15,-82,-117,0,42,26,28,-6,2020-10-21 18:07:45.138
31,41,2,-3,-7,23,43,-27,2020-10-21 18:07:45.154
-19,38,-21,23,6,18,17,-18,2020-10-21 18:07:45.171
-18,14,56,-10,1,-68,-81,-10,2020-10-21 18:07:45.187
15,22,-2,-4,-18,14,8,19,2020-10-21 18:07:45.205
-4,-16,2,34,-7,-49,-62,8,2020-10-21 18:07:45.221
-8,10,78,16,-24,-93,-70,-17,2020-10-21 18:07:45.238
-13,-8,27,-6,-16,-109,-104,-5,2020-10-21 18:07:45.255
-38,-20,-20,-15,-8,-22,-17,-29,2020-10-21 18:07:45.272
-15,2,25,3,-12,-29,-44,-23,2020-10-21 18:07:45.288
-21,-17,-78,-32,12,86,108,22,2020-10-21 18:07:45.305
21,12,36,-12,-1,49,-11,7,2020-10-21 18:07:45.322
-8,-8,-48,-30,29,107,78,-6,2020-10-21 18:07:45.338
-15,-14,-12,-29,35,78,31,15,2020-10-21 18:07:45.355
7,8,15,42,28,78,46,8,2020-10-21 18:07:45.372
-31,-18,-44,-24,35,79,78,-2,2020-10-21 18:07:45.388
-20,-11,28,36,-8,-65,-29,11,2020-10-21 18:07:45.405
19,7,-2,5,-27,-21,0,-20,2020-10-21 18:07:45.422
5,0,-3,-9,-8,49,67,-3,2020-10-21 18:07:45.439
-10,-7,-8,-10,77,19,-42,-33,2020-10-21 18:07:45.454
24,20,-3,36,24,-61,-28,-31,2020-10-21 18:07:45.471
2,-5,-7,34,6,-13,-11,15,2020-10-21 18:07:45.488
-4,0,0,-3,7,27,51,13,2020-10-21 18:07:45.504
14,7,4,28,0,6,-38,-12,2020-10-21 18:07:45.521
-18,-16,-25,10,-17,-83,-63,-25,2020-10-21 18:07:45.538
1,3,-5,-13,19,39,5,17,2020-10-21 18:07:45.555
-34,-24,-9,8,-13,41,34,-1,2020-10-21 18:07:45.572
-18,-15,-43,63,-20,57,47,-4,2020-10-21 18:07:45.588
5,-36,-8,-84,-23,37,114,-14,2020-10-21 18:07:45.604
15,13,3,13,-1,-38,-43,0,2020-10-21 18:07:45.622
-13,-6,-12,47,38,0,-42,-28,2020-10-21 18:07:45.638
-17,-1,-4,21,-12,-47,-93,7,2020-10-21 18:07:45.655
19,-1,7,-5,-5,2,42,5,2020-10-21 18:07:45.672
12,0,5,-62,21,-25,-47,18,2020-10-21 18:07:45.689
0,7,-35,8,-58,-44,-46,-8,2020-10-21 18:07:45.705
-9,1,21,-78,12,34,-37,-13,2020-10-21 18:07:45.722
5,31,50,-128,-101,-4,-65,13,2020-10-21 18:07:45.739
-15,11,-15,29,-51,-45,-45,6,2020-10-21 18:07:45.755
1,-26,4,-30,60,37,35,-5,2020-10-21 18:07:45.772
4,36,45,53,-31,34,55,-7,2020-10-21 18:07:45.789
3,2,7,-9,21,-64,-34,3,2020-10-21 18:07:45.805
-3,10,19,-61,-22,-19,62,17,2020-10-21 18:07:45.822
-7,-2,-11,84,-36,-6,9,-11,2020-10-21 18:07:45.838
11,-20,-33,16,43,44,40,-11,2020-10-21 18:07:45.855
3,-2,20,-1,-20,-16,7,-3,2020-10-21 18:07:45.871
-1,12,0,-45,7,30,-21,-5,2020-10-21 18:07:45.888
-10,-12,-11,-41,13,71,-6,-2,2020-10-21 18:07:45.904
-7,-17,-24,16,-21,-12,7,-1,2020-10-21 18:07:45.922
19,40,43,-17,49,111,80,-6,2020-10-21 18:07:45.939
4,17,-1,10,-15,-66,19,10,2020-10-21 18:07:45.955
-11,-24,-17,12,-47,-38,-17,-4,2020-10-21 18:07:45.972
-3,-6,-27,-6,-12,-50,-24,-7,2020-10-21 18:07:45.989
-4,-15,-20,2,62,32,8,8,2020-10-21 18:07:46.005
-7,2,8,-52,-41,-36,-14,8,2020-10-21 18:07:46.022
3,-9,-25,7,-4,-25,-16,14,2020-10-21 18:07:46.039
-7,25,6,8,-17,-34,-14,2,2020-10-21 18:07:46.056
16,2,9,18,-6,-8,14,-26,2020-10-21 18:07:46.072
-2,10,-8,-10,-28,-15,-10,0,2020-10-21 18:07:46.089
-9,-21,-11,26,-7,-20,5,-2,2020-10-21 18:07:46.105
6,13,9,15,4,4,-4,5,2020-10-21 18:07:46.122
24,-26,-3,11,11,-7,2,-3,2020-10-21 18:07:46.139
20,4,10,-2,19,6,7,9,2020-10-21 18:07:46.156
-5,-49,-13,7,0,0,6,6,2020-10-21 18:07:46.173
-27,-2,14,13,2,-5,-15,2,2020-10-21 18:07:46.189
-8,35,-8,-10,-2,-5,-1,9,2020-10-21 18:07:46.206
-22,-1,12,8,1,2,2,0,2020-10-21 18:07:46.223
23,27,-11,-10,2,-4,0,-1,2020-10-21 18:07:46.240
18,-7,-11,-3,1,0,-4,0,2020-10-21 18:07:46.255
-3,-8,-13,4,-4,0,-1,-4,2020-10-21 18:07:46.272
-1,-10,-14,18,3,-4,-1,1,2020-10-21 18:07:46.289
-5,-32,-10,2,0,4,8,-6,2020-10-21 18:07:46.305
2,1,-13,11,5,4,6,11,2020-10-21 18:07:46.323
-7,-8,-6,-3,-9,-4,-4,2,2020-10-21 18:07:46.339
2,-45,-34,-13,5,-1,1,-13,2020-10-21 18:07:46.356
-6,-50,-2,-4,-20,2,-1,-7,2020-10-21 18:07:46.372
9,12,-5,3,2,-4,-4,-11,2020-10-21 18:07:46.389
4,2,-28,15,7,2,3,8,2020-10-21 18:07:46.405
-11,11,20,-12,-18,-8,-4,-9,2020-10-21 18:07:46.423
12,-7,-16,-8,0,1,10,12,2020-10-21 18:07:46.439
-7,-1,-11,5,1,-1,-3,-2,2020-10-21 18:07:46.456
8,28,2,11,11,-11,-20,6,2020-10-21 18:07:46.473
-3,-10,2,5,-32,-1,-15,12,2020-10-21 18:07:46.490
5,28,8,0,1,-9,-18,7,2020-10-21 18:07:46.506
4,-5,-3,-12,4,-4,-7,17,2020-10-21 18:07:46.523
10,-4,-16,-10,-17,-31,-35,2,2020-10-21 18:07:46.540
7,-1,14,10,5,15,14,-10,2020-10-21 18:07:46.556
-23,-14,4,-15,10,45,20,9,2020-10-21 18:07:46.573
14,28,5,21,16,-23,-21,16,2020-10-21 18:07:46.590
28,8,-10,-1,-9,33,51,-29,2020-10-21 18:07:46.606
-2,-11,40,20,-15,-5,20,3,2020-10-21 18:07:46.623
23,29,22,-49,-6,35,30,13,2020-10-21 18:07:46.640
-5,14,8,17,-6,7,8,-14,2020-10-21 18:07:46.657
-6,-25,-18,-6,5,1,10,-15,2020-10-21 18:07:46.673
-4,-9,-32,-35,1,-9,-23,14,2020-10-21 18:07:46.690
19,19,28,13,37,18,9,3,2020-10-21 18:07:46.706
-32,-22,-28,-29,-8,-8,-8,0,2020-10-21 18:07:46.724
-16,11,-38,-51,-2,22,12,-17,2020-10-21 18:07:46.739
24,23,41,74,14,8,3,5,2020-10-21 18:07:46.757
-51,-17,-19,-78,-4,3,7,13,2020-10-21 18:07:46.774
-5,30,9,-2,-15,-5,-4,12,2020-10-21 18:07:46.790
24,20,8,-26,4,5,6,-11,2020-10-21 18:07:46.806
1,-10,-5,14,10,11,0,21,2020-10-21 18:07:46.823
10,6,35,71,8,5,7,-37,2020-10-21 18:07:46.840
-35,-10,-30,-52,-15,-5,-8,-5,2020-10-21 18:07:46.856
15,5,7,35,8,-3,-5,5,2020-10-21 18:07:46.873
10,-8,-8,10,-3,3,11,-18,2020-10-21 18:07:46.890
27,7,-8,3,-6,8,10,32,2020-10-21 18:07:46.906
-13,-17,13,16,-4,-4,-10,-50,2020-10-21 18:07:46.923
-3,1,-4,3,-1,-8,-1,-4,2020-10-21 18:07:46.940
-73,-45,-24,6,-17,-21,-24,18,2020-10-21 18:07:46.957
0,-47,1,2,4,-2,2,-42,2020-10-21 18:07:46.974
9,25,7,9,3,8,11,15,2020-10-21 18:07:46.990
-10,34,25,-4,-6,-31,-62,-54,2020-10-21 18:07:47.006
37,28,-15,-2,-3,6,0,12,2020-10-21 18:07:47.024
-64,-30,-4,-21,-31,-9,-10,39,2020-10-21 18:07:47.040
10,-11,0,4,2,15,13,16,2020-10-21 18:07:47.057
-17,-73,-26,-2,-11,1,-9,38,2020-10-21 18:07:47.074
13,-44,-22,-10,-30,4,15,87,2020-10-21 18:07:47.091
23,34,-11,-8,-50,-26,-20,0,2020-10-21 18:07:47.106
-69,-44,-13,9,16,4,0,2,2020-10-21 18:07:47.123
35,29,3,2,4,1,8,-32,2020-10-21 18:07:47.140
40,-17,31,23,15,8,5,11,2020-10-21 18:07:47.157
-10,-29,-5,13,27,3,-4,-6,2020-10-21 18:07:47.173
19,14,20,6,6,-13,-5,-12,2020-10-21 18:07:47.190
21,1,-18,-8,19,33,71,-1,2020-10-21 18:07:47.206
12,46,14,-3,-1,-9,-15,2,2020-10-21 18:07:47.223
1,10,-7,2,-4,0,0,2,2020-10-21 18:07:47.240
-17,-11,-16,6,0,-9,-15,-8,2020-10-21 18:07:47.257
2,-39,-27,14,-6,-6,-1,5,2020-10-21 18:07:47.274
3,27,20,6,3,5,4,-2,2020-10-21 18:07:47.290
-3,-25,7,1,-15,-4,-3,-2,2020-10-21 18:07:47.307
-3,1,2,-15,2,1,1,-2,2020-10-21 18:07:47.324
-11,-10,7,-19,-2,-3,-1,13,2020-10-21 18:07:47.341
4,17,0,-19,-12,-9,-1,-6,2020-10-21 18:07:47.358
-4,6,4,-8,10,-5,-13,-2,2020-10-21 18:07:47.374
3,-20,-14,7,5,-1,-16,-2,2020-10-21 18:07:47.391
5,-11,-16,12,5,6,12,-4,2020-10-21 18:07:47.407
-4,8,-8,-7,-13,-25,-44,-3,2020-10-21 18:07:47.423
-4,8,-8,-7,-13,-25,-44,-2,2020-10-21 18:07:47.440
14,34,13,2,-1,3,6,7,2020-10-21 18:07:47.457
-3,19,-7,5,7,6,6,15,2020-10-21 18:07:47.473
-6,-4,6,-2,6,0,4,-6,2020-10-21 18:07:47.490
1,-5,-4,5,7,1,2,11,2020-10-21 18:07:47.507
-2,-17,3,0,0,1,5,2,2020-10-21 18:07:47.524
-9,-2,-14,-3,-4,-4,-2,-7,2020-10-21 18:07:47.540
4,70,11,-7,-1,1,3,7,2020-10-21 18:07:47.557
5,15,10,-44,8,11,5,2,2020-10-21 18:07:47.574
13,9,10,13,-3,-4,7,1,2020-10-21 18:07:47.590
-15,-31,-13,-12,-6,3,-2,-9,2020-10-21 18:07:47.607
7,9,12,-1,-6,-2,6,1,2020-10-21 18:07:47.624
6,-25,-5,4,6,3,3,3,2020-10-21 18:07:47.641
-9,-102,-33,8,19,24,-1,5,2020-10-21 18:07:47.657
17,58,-4,-1,6,10,7,5,2020-10-21 18:07:47.674
3,-39,-7,-9,-3,-2,3,-18,2020-10-21 18:07:47.691
6,-23,8,3,3,5,4,2,2020-10-21 18:07:47.707
-14,18,5,-7,-6,-3,-2,0,2020-10-21 18:07:47.725
3,-16,2,3,-4,-7,-3,7,2020-10-21 18:07:47.741
4,-34,-8,1,-5,5,-1,4,2020-10-21 18:07:47.758
8,11,13,2,7,4,3,-13,2020-10-21 18:07:47.775
-6,4,4,8,-5,-2,2,-2,2020-10-21 18:07:47.790
-25,5,-2,-5,-4,-4,-8,-3,2020-10-21 18:07:47.807
1,-2,4,-3,-1,7,5,-1,2020-10-21 18:07:47.824
4,-4,-5,-6,-2,-9,-3,-10,2020-10-21 18:07:47.840
11,1,1,-2,-10,-2,2,10,2020-10-21 18:07:47.857
1,-16,-6,12,7,11,6,-17,2020-10-21 18:07:47.874
-17,-14,-17,-9,3,-10,-12,0,2020-10-21 18:07:47.891
-4,-7,1,-9,-22,5,1,-4,2020-10-21 18:07:47.907
-4,12,-44,-7,-13,-25,-4,-2,2020-10-21 18:07:47.924
-3,-10,-8,1,6,2,2,1,2020-10-21 18:07:47.942
-18,-28,-5,1,3,8,-3,-3,2020-10-21 18:07:47.958
12,9,-3,-11,-14,22,9,-1,2020-10-21 18:07:47.975
-26,55,14,-1,5,-14,-9,4,2020-10-21 18:07:47.991
4,-63,1,14,-9,-42,-7,4,2020-10-21 18:07:48.007
-3,-17,-1,-4,10,-3,-5,0,2020-10-21 18:07:48.025
0,3,27,-9,0,0,-1,-8,2020-10-21 18:07:48.041
1,-14,-31,2,3,8,1,-6,2020-10-21 18:07:48.058
-2,19,-11,-4,0,1,-4,6,2020-10-21 18:07:48.075
-1,-1,4,16,7,4,0,2,2020-10-21 18:07:48.092
8,-42,0,-12,-4,-10,-3,-2,2020-10-21 18:07:48.108
6,70,25,-2,-1,7,5,-1,2020-10-21 18:07:48.125
0,17,-4,0,1,-3,-3,1,2020-10-21 18:07:48.142
-8,37,8,-7,-9,-4,-8,0,2020-10-21 18:07:48.158
-5,-10,-3,-2,3,-1,-2,5,2020-10-21 18:07:48.174
2,-14,-3,3,5,10,4,-3,2020-10-21 18:07:48.191
1,-7,-5,-5,-7,0,0,-9,2020-10-21 18:07:48.207
-5,14,-4,-2,-3,0,-3,-1,2020-10-21 18:07:48.224
-1,-1,2,-2,-5,-2,-2,0,2020-10-21 18:07:48.242
2,2,-2,0,0,3,3,1,2020-10-21 18:07:48.258
0,8,2,0,1,-1,0,-1,2020-10-21 18:07:48.275
2,-16,-14,-2,3,4,2,-2,2020-10-21 18:07:48.291
-3,2,7,0,-6,4,-1,3,2020-10-21 18:07:48.308
-6,13,0,0,-2,-2,-5,-5,2020-10-21 18:07:48.325
-6,-8,-8,-2,2,0,-1,1,2020-10-21 18:07:48.342
17,25,17,0,1,-1,-1,-8,2020-10-21 18:07:48.358
-7,-7,29,6,3,1,2,2,2020-10-21 18:07:48.375
0,-14,-21,-3,0,-2,0,2,2020-10-21 18:07:48.392
-5,-23,2,-1,10,4,-3,2,2020-10-21 18:07:48.409
3,7,-6,-1,-5,-1,2,0,2020-10-21 18:07:48.425
-7,-4,6,-1,-1,0,-4,-9,2020-10-21 18:07:48.442
-3,-19,4,3,-4,0,0,9,2020-10-21 18:07:48.458
-10,-17,-69,-15,-2,-6,-10,1,2020-10-21 18:07:48.474
0,2,-10,5,7,1,1,3,2020-10-21 18:07:48.491
6,-11,-2,0,-32,-10,-4,3,2020-10-21 18:07:48.508
1,-15,-18,-9,-27,-9,-1,-3,2020-10-21 18:07:48.524
-3,10,17,5,9,1,2,-10,2020-10-21 18:07:48.541
-8,-6,-6,-9,-8,-8,-8,12,2020-10-21 18:07:48.558
2,-21,18,6,8,4,6,-11,2020-10-21 18:07:48.575
1,-16,-6,-2,-2,-4,0,-9,2020-10-21 18:07:48.592
7,-15,8,2,2,8,3,16,2020-10-21 18:07:48.608
-8,-2,6,8,22,10,6,-4,2020-10-21 18:07:48.624
2,-15,0,1,-9,-3,-4,21,2020-10-21 18:07:48.642
-4,-9,0,1,2,0,-3,0,2020-10-21 18:07:48.659
15,15,0,-1,-8,1,2,-9,2020-10-21 18:07:48.675
-15,4,-8,-4,-4,-4,-11,-12,2020-10-21 18:07:48.692
-9,0,-5,-2,-3,-9,-7,-33,2020-10-21 18:07:48.708
14,4,4,0,-1,4,12,36,2020-10-21 18:07:48.724
-21,-9,2,0,-1,-4,-2,-2,2020-10-21 18:07:48.742
20,5,-1,2,4,5,7,26,2020-10-21 18:07:48.759
1,10,6,1,1,0,3,-1,2020-10-21 18:07:48.775
9,19,-1,-3,0,1,-2,19,2020-10-21 18:07:48.792
-9,-4,5,1,0,-6,-2,2,2020-10-21 18:07:48.809
-11,-7,-3,-1,1,-1,-7,29,2020-10-21 18:07:48.825
23,7,5,5,13,53,16,-26,2020-10-21 18:07:48.842
-8,-3,0,-2,0,2,0,16,2020-10-21 18:07:48.859
5,7,3,1,2,5,6,8,2020-10-21 18:07:48.875
5,-27,-2,2,-1,-9,-1,-21,2020-10-21 18:07:48.892
-4,19,1,-1,-4,-2,-1,-20,2020-10-21 18:07:48.909
-5,5,14,0,-2,-4,-2,9,2020-10-21 18:07:48.925
14,-1,-4,-1,3,-5,6,30,2020-10-21 18:07:48.942
-15,-19,-4,0,2,2,-8,-8,2020-10-21 18:07:48.959
9,-10,2,5,2,-2,-3,-12,2020-10-21 18:07:48.976
19,1,-3,-2,-2,2,11,9,2020-10-21 18:07:48.992
-18,-20,-9,-3,-6,-13,-11,-14,2020-10-21 18:07:49.009
1,-4,-22,-3,-3,-4,0,12,2020-10-21 18:07:49.025
11,4,7,3,1,2,8,-13,2020-10-21 18:07:49.042
13,-13,3,3,2,2,4,8,2020-10-21 18:07:49.059
-5,-10,-4,-2,-1,-9,-4,-16,2020-10-21 18:07:49.076
-14,-7,-8,-3,2,3,-6,-2,2020-10-21 18:07:49.092
-3,4,-10,-4,-1,1,6,11,2020-10-21 18:07:49.109
-13,-14,1,-6,-4,-4,-11,8,2020-10-21 18:07:49.125
0,0,-3,-2,1,1,3,-17,2020-10-21 18:07:49.142
-4,4,-2,-1,1,10,8,-5,2020-10-21 18:07:49.159
-1,-12,-7,0,-2,-6,-5,19,2020-10-21 18:07:49.175
-13,-4,2,-3,-6,-4,-11,-13,2020-10-21 18:07:49.192
-6,-2,-8,-3,-3,2,-5,3,2020-10-21 18:07:49.209
12,0,-1,3,9,0,0,-7,2020-10-21 18:07:49.225
14,4,12,0,-3,-5,4,18,2020-10-21 18:07:49.243
-11,24,6,1,-4,-9,-8,14,2020-10-21 18:07:49.259
12,-17,-3,0,1,0,11,-9,2020-10-21 18:07:49.276
20,25,14,5,1,5,8,3,2020-10-21 18:07:49.293
-22,-13,5,-2,-3,-5,-10,-10,2020-10-21 18:07:49.310
2,-4,-5,0,0,4,4,-7,2020-10-21 18:07:49.325
-14,-5,-5,-3,-2,0,-3,13,2020-10-21 18:07:49.343
3,-13,-5,-2,-3,-4,-3,-47,2020-10-21 18:07:49.359
12,3,17,6,3,3,9,2,2020-10-21 18:07:49.376
6,3,-4,-2,0,4,4,15,2020-10-21 18:07:49.393
9,0,-8,0,-1,1,-1,-24,2020-10-21 18:07:49.410
-1,1,-9,0,-1,4,6,-48,2020-10-21 18:07:49.426
-31,-20,-10,1,-6,-21,-18,31,2020-10-21 18:07:49.442
23,8,19,7,4,2,5,24,2020-10-21 18:07:49.460
-31,-2,-12,-10,-15,-27,-27,5,2020-10-21 18:07:49.477
-18,-9,-8,-2,2,-9,-11,-2,2020-10-21 18:07:49.492
27,0,-12,1,6,9,12,9,2020-10-21 18:07:49.509
-8,5,9,4,0,-9,-2,14,2020-10-21 18:07:49.525
-30,-17,-26,-8,-7,-4,-18,9,2020-10-21 18:07:49.543
-5,-19,8,3,-3,-33,-10,4,2020-10-21 18:07:49.560
20,9,-18,-2,1,8,17,-11,2020-10-21 18:07:49.576
4,34,27,-5,-5,6,-12,-4,2020-10-21 18:07:49.593
4,2,44,4,0,13,6,-15,2020-10-21 18:07:49.610
-14,11,-5,1,3,14,-3,2,2020-10-21 18:07:49.626
34,-14,-3,1,1,-1,10,-4,2020-10-21 18:07:49.643
-2,10,-4,9,11,16,12,-8,2020-10-21 18:07:49.660
13,-6,-17,-5,-5,-8,1,14,2020-10-21 18:07:49.677
-23,-6,5,2,0,0,-1,8,2020-10-21 18:07:49.693
-6,8,38,3,1,-14,-13,-30,2020-10-21 18:07:49.710
-22,-9,-6,-1,-5,-23,-22,13,2020-10-21 18:07:49.725
23,13,-8,-4,-6,-33,8,-12,2020-10-21 18:07:49.742
10,-6,-32,-4,4,11,-4,3,2020-10-21 18:07:49.759
-1,0,-2,-5,-2,0,-2,-9,2020-10-21 18:07:49.776
-3,3,10,4,-2,1,-9,9,2020-10-21 18:07:49.793
17,-3,0,2,4,-23,-6,11,2020-10-21 18:07:49.810
-17,-11,-5,1,2,13,1,12,2020-10-21 18:07:49.826
6,5,-7,-11,-3,-13,6,-21,2020-10-21 18:07:49.843
-2,-1,-4,-3,-5,0,1,2,2020-10-21 18:07:49.860
17,9,23,3,2,16,7,0,2020-10-21 18:07:49.877
-4,-1,-35,-3,-1,8,2,43,2020-10-21 18:07:49.893
2,-5,-13,-2,-4,-3,-3,5,2020-10-21 18:07:49.910
17,2,-9,-2,1,5,14,-11,2020-10-21 18:07:49.926
21,7,5,3,4,4,2,-8,2020-10-21 18:07:49.943
-16,-5,5,-2,-1,-3,-5,-5,2020-10-21 18:07:49.960
-3,-2,-7,-2,-7,-13,-8,-33,2020-10-21 18:07:49.977
-14,-4,-4,2,0,1,-1,-41,2020-10-21 18:07:49.993
19,-2,-9,-6,-1,1,9,-3,2020-10-21 18:07:50.010
-6,-1,-6,-5,-4,-4,0,44,2020-10-21 18:07:50.027
-10,-4,-3,0,-2,-3,-4,38,2020-10-21 18:07:50.044
1,1,1,1,-1,5,5,-12,2020-10-21 18:07:50.060
2,-4,5,2,-1,-2,-2,5,2020-10-21 18:07:50.077
-28,0,4,1,-2,-5,-5,18,2020-10-21 18:07:50.093
-3,1,-4,-3,-1,0,-2,4,2020-10-21 18:07:50.109
1,-1,1,0,-2,2,2,-5,2020-10-21 18:07:50.126
33,9,2,1,2,8,16,-19,2020-10-21 18:07:50.143
20,4,0,1,-3,11,20,8,2020-10-21 18:07:50.160
-27,-15,-7,-4,-4,-11,-22,-7,2020-10-21 18:07:50.177
22,-1,-4,-5,-5,-11,-12,15,2020-10-21 18:07:50.194
8,-5,-2,0,2,-2,6,-7,2020-10-21 18:07:50.210
12,4,6,-3,5,25,8,18,2020-10-21 18:07:50.226
-1,5,0,-1,-4,1,7,26,2020-10-21 18:07:50.243
-33,-7,-7,-7,-2,-11,-16,-29,2020-10-21 18:07:50.260
8,20,-4,-5,-5,5,7,-12,2020-10-21 18:07:50.277
8,-1,4,8,7,1,-5,9,2020-10-21 18:07:50.293
16,6,4,-4,1,-2,2,-2,2020-10-21 18:07:50.310
-11,-14,0,7,-1,-15,-14,0,2020-10-21 18:07:50.326
8,3,0,-6,0,13,15,-2,2020-10-21 18:07:50.343
22,5,9,10,15,15,18,1,2020-10-21 18:07:50.360
-11,-4,1,-4,-9,-19,-26,10,2020-10-21 18:07:50.377
-16,-10,0,-3,-8,-4,-7,-8,2020-10-21 18:07:50.393
4,-1,4,5,-2,-6,2,-7,2020-10-21 18:07:50.410
-2,7,9,0,-5,-4,-3,-3,2020-10-21 18:07:50.426
3,11,6,1,4,13,9,-8,2020-10-21 18:07:50.444
3,4,3,-3,-5,-13,-4,5,2020-10-21 18:07:50.460
-8,-34,-18,-6,-4,-5,4,-18,2020-10-21 18:07:50.477
17,-10,1,4,1,-2,8,-1,2020-10-21 18:07:50.494
-19,-55,-35,-8,-3,-10,-6,-1,2020-10-21 18:07:50.511
7,64,4,-5,-8,-16,-25,13,2020-10-21 18:07:50.527
-11,-24,-7,-4,-3,4,0,-6,2020-10-21 18:07:50.544
-11,51,10,-1,-1,-18,-10,3,2020-10-21 18:07:50.561
39,83,31,0,-3,5,-3,-3,2020-10-21 18:07:50.578
-65,-79,-50,-14,-6,-6,5,-6,2020-10-21 18:07:50.594
-10,-19,-14,-4,-3,-1,2,3,2020-10-21 18:07:50.610
-10,-19,-14,-4,-3,-1,2,-4,2020-10-21 18:07:50.626
14,-36,16,20,6,11,11,7,2020-10-21 18:07:50.644
-1,8,-1,-4,-1,5,10,2,2020-10-21 18:07:50.660
-15,-62,-19,-2,-3,-4,7,-3,2020-10-21 18:07:50.677
-16,-2,-13,-6,-15,2,7,-2,2020-10-21 18:07:50.694
-7,-11,-10,-18,0,-1,-7,3,2020-10-21 18:07:50.711
9,9,5,-1,-7,5,1,-3,2020-10-21 18:07:50.727
-20,-28,-9,-1,2,0,-4,-3,2020-10-21 18:07:50.744
2,13,14,2,0,-6,-2,-2,2020-10-21 18:07:50.761
8,20,41,2,2,5,1,2,2020-10-21 18:07:50.777
1,-16,-12,1,-2,-2,-1,-6,2020-10-21 18:07:50.794
-9,-21,-3,-4,-2,-1,-3,1,2020-10-21 18:07:50.811
5,-8,-8,-3,-4,-3,0,-10,2020-10-21 18:07:50.827
-3,-19,-16,-3,-4,-5,-5,2,2020-10-21 18:07:50.844
-1,-17,-4,-3,-2,-1,-3,3,2020-10-21 18:07:50.861
-5,-18,-29,-2,-3,1,-1,4,2020-10-21 18:07:50.878
5,9,3,1,-2,-1,0,4,2020-10-21 18:07:50.894
-7,-6,5,-2,-2,-3,-5,0,2020-10-21 18:07:50.911
-4,-24,-13,-2,0,0,1,0,2020-10-21 18:07:50.928
-11,-8,-12,-4,-3,-4,-7,4,2020-10-21 18:07:50.945
1,2,1,-1,-2,0,1,-4,2020-10-21 18:07:50.961
4,22,26,2,1,2,3,3,2020-10-21 18:07:50.978
6,3,19,3,2,1,1,-1,2020-10-21 18:07:50.994
6,3,19,3,2,1,1,-3,2020-10-21 18:07:51.011
-1,-4,5,1,2,0,-1,-3,2020-10-21 18:07:51.027
0,0,0,0,0,0,0,-1,2020-10-21 18:07:12.268
0,0,0,0,0,0,0,-1,2020-10-21 18:07:12.284
0,0,0,0,0,0,0,-1,2020-10-21 18:07:12.301
0,0,0,0,0,0,0,-1,2020-10-21 18:07:12.318
0,0,0,0,0,0,0,-2,2020-10-21 18:07:12.335
0,0,0,0,0,0,0,-2,2020-10-21 18:07:12.352
0,0,0,0,0,0,0,-3,2020-10-21 18:07:12.368
7,-3,-1,0,0,0,-1,-3,2020-10-21 18:07:12.384
-5,1,0,-1,-2,-4,0,-3,2020-10-21 18:07:12.402
1,0,-2,0,0,0,-1,2,2020-10-21 18:07:12.419
1,0,-2,0,0,0,-1,-4,2020-10-21 18:07:12.435
-8,-2,-2,0,1,1,0,1,2020-10-21 18:07:12.452
1,0,1,1,1,-1,0,-3,2020-10-21 18:07:12.469
-1,1,0,0,-2,0,-4,3,2020-10-21 18:07:12.485
-1,1,0,0,-2,0,-4,-3,2020-10-21 18:07:12.502
-1,1,0,0,-2,0,-4,-1,2020-10-21 18:07:12.519
2,-6,-2,0,1,0,1,2,2020-10-21 18:07:12.536
-15,-4,0,2,2,1,-2,-1,2020-10-21 18:07:12.552
4,0,-2,-2,-3,0,-1,1,2020-10-21 18:07:12.569
-3,0,-1,-1,-1,-1,-2,-1,2020-10-21 18:07:12.585
4,-3,-1,-2,0,-1,1,6,2020-10-21 18:07:12.603
-5,-3,-2,-2,-3,-2,-1,-3,2020-10-21 18:07:12.619
-10,-1,2,0,-1,-1,1,-3,2020-10-21 18:07:12.636
6,-1,1,-3,0,-1,0,-2,2020-10-21 18:07:12.653
0,-2,-1,1,1,0,-1,-3,2020-10-21 18:07:12.669
1,1,-2,0,0,-1,0,-2,2020-10-21 18:07:12.685
-2,-1,-1,-1,-2,-1,0,-1,2020-10-21 18:07:12.702
6,0,-2,-3,-1,-1,2,-5,2020-10-21 18:07:12.719
-6,-4,0,-1,-1,-1,-1,-3,2020-10-21 18:07:12.735
-4,-2,-1,1,0,-1,-2,-1,2020-10-21 18:07:12.753
-2,2,-1,-1,-1,0,0,2,2020-10-21 18:07:12.769
-4,0,-1,0,1,-1,-4,1,2020-10-21 18:07:12.785
-8,-1,1,-1,-1,-2,0,-2,2020-10-21 18:07:12.803
-3,-1,-1,-2,0,-1,1,-1,2020-10-21 18:07:12.819
-2,-2,0,-1,-3,-3,-3,-3,2020-10-21 18:07:12.836
-6,-1,0,-1,0,0,-1,1,2020-10-21 18:07:12.853
7,1,-1,1,0,0,0,-3,2020-10-21 18:07:12.869
1,0,-1,0,0,2,0,-2,2020-10-21 18:07:12.885
-4,-2,0,0,-1,0,1,-1,2020-10-21 18:07:12.902
-8,-4,-1,-2,-4,-2,-2,1,2020-10-21 18:07:12.919
-9,-7,-2,0,0,-2,1,0,2020-10-21 18:07:12.935
-1,-1,0,0,-3,0,-3,-1,2020-10-21 18:07:12.952
10,0,0,3,-2,-2,1,-4,2020-10-21 18:07:12.969
1,0,-2,0,-1,-4,-4,-4,2020-10-21 18:07:12.985
-7,-5,-3,-1,-1,-2,0,2,2020-10-21 18:07:13.003
-3,-2,-2,1,-1,-3,0,0,2020-10-21 18:07:13.019
1,-1,-3,-3,0,0,0,0,2020-10-21 18:07:13.036
-5,-2,1,0,0,0,0,-4,2020-10-21 18:07:13.053
-3,0,1,0,0,0,-1,2,2020-10-21 18:07:13.070
-4,-2,-2,-1,-2,-2,-2,-2,2020-10-21 18:07:13.086
-11,-3,-1,-1,-1,0,-2,-1,2020-10-21 18:07:13.103
7,4,1,1,1,3,2,1,2020-10-21 18:07:13.119
-1,1,1,-2,1,0,-1,1,2020-10-21 18:07:13.135
0,1,-1,0,-2,-2,-2,-5,2020-10-21 18:07:13.152
-5,-2,-1,0,0,-1,-1,1,2020-10-21 18:07:13.169
10,-2,-1,-1,-2,-3,0,-1,2020-10-21 18:07:13.185
-8,-3,-1,-1,-2,-1,-3,-1,2020-10-21 18:07:13.202
0,0,-2,0,0,-1,0,-3,2020-10-21 18:07:13.219
-1,-1,0,-1,-1,1,1,-1,2020-10-21 18:07:13.236
9,-1,-2,-1,0,-2,0,-1,2020-10-21 18:07:13.253
-7,4,0,-1,-1,-1,-2,-9,2020-10-21 18:07:13.269
-1,1,-1,0,0,0,-1,0,2020-10-21 18:07:13.286
-3,1,-1,-2,-2,0,0,0,2020-10-21 18:07:13.303
-1,-4,1,0,1,-2,-1,-4,2020-10-21 18:07:13.320
-4,1,0,2,-1,-1,-1,-2,2020-10-21 18:07:13.336
2,-1,-2,0,0,-2,-1,2,2020-10-21 18:07:13.353
-5,-3,-1,-1,-1,-1,0,1,2020-10-21 18:07:13.370
-8,-3,-2,0,-4,-4,-5,1,2020-10-21 18:07:13.386
-2,-2,0,0,0,-2,0,2,2020-10-21 18:07:13.403
7,7,0,-1,3,-1,-1,2,2020-10-21 18:07:13.420
-6,-5,-1,-1,-3,-1,0,0,2020-10-21 18:07:13.437
-4,-2,-1,-1,0,0,-1,-2,2020-10-21 18:07:13.453
8,0,-2,-1,-2,0,0,1,2020-10-21 18:07:13.470
-1,0,-1,-1,-2,0,1,0,2020-10-21 18:07:13.486
2,0,-1,1,0,2,-1,-2,2020-10-21 18:07:13.503
-3,-2,-1,0,-1,0,2,-1,2020-10-21 18:07:13.519
14,1,-1,-1,-1,0,-1,2,2020-10-21 18:07:13.536
2,-2,-1,2,1,-2,-1,0,2020-10-21 18:07:13.553
-2,2,0,0,1,-1,-1,-2,2020-10-21 18:07:13.570
2,-1,-1,0,0,-1,-1,-1,2020-10-21 18:07:13.586
-4,-3,1,0,1,-1,1,1,2020-10-21 18:07:13.603
-11,-1,1,0,0,1,0,1,2020-10-21 18:07:13.620
-4,0,0,-2,-1,-2,0,2,2020-10-21 18:07:13.636
8,1,-2,-1,-2,-1,-2,0,2020-10-21 18:07:13.653
-3,-4,-1,0,0,0,-2,0,2020-10-21 18:07:13.670
-13,-3,0,0,-2,-1,-1,-1,2020-10-21 18:07:13.686
-1,-1,-2,-3,0,-1,-1,0,2020-10-21 18:07:13.703
-1,-1,-2,-2,0,0,0,-1,2020-10-21 18:07:13.720
0,-7,-1,0,0,1,-1,-2,2020-10-21 18:07:13.737
3,0,-2,-1,0,0,1,-3,2020-10-21 18:07:13.753
2,-1,0,-1,-1,0,-1,2,2020-10-21 18:07:13.770
3,1,-1,-1,-1,-1,-2,1,2020-10-21 18:07:13.786
-2,0,-1,-1,-3,-2,-1,0,2020-10-21 18:07:13.804
0,0,0,-1,-1,-1,0,-2,2020-10-21 18:07:13.820
-3,-1,-1,-1,-1,0,0,-2,2020-10-21 18:07:13.837
-1,1,0,0,-2,0,1,1,2020-10-21 18:07:13.854
-10,-1,-2,-5,-4,0,-3,1,2020-10-21 18:07:13.870
8,-1,-1,-2,-1,-3,0,1,2020-10-21 18:07:13.886
2,0,1,0,0,0,0,0,2020-10-21 18:07:13.903
-3,-1,0,2,0,0,0,2,2020-10-21 18:07:13.920
-2,1,-4,-2,-1,-2,-2,1,2020-10-21 18:07:13.936
3,3,-1,-2,-1,0,-1,-3,2020-10-21 18:07:13.953
3,5,0,1,0,0,-1,-1,2020-10-21 18:07:13.970
-4,-2,2,-1,1,1,1,-3,2020-10-21 18:07:13.986
2,2,-1,0,0,-2,0,0,2020-10-21 18:07:14.003
-10,-2,-1,1,0,0,-1,-5,2020-10-21 18:07:14.020
4,2,0,1,-2,-1,-1,1,2020-10-21 18:07:14.037
-4,0,1,-1,0,-2,0,-1,2020-10-21 18:07:14.054
-4,-2,-1,-3,0,0,-1,0,2020-10-21 18:07:14.070
8,0,-1,-2,-3,-2,0,0,2020-10-21 18:07:14.087
-2,-3,-1,0,-1,0,-1,3,2020-10-21 18:07:14.104
2,-1,-2,-5,-3,0,-2,1,2020-10-21 18:07:14.120
-6,-2,0,0,-1,-1,-2,-2,2020-10-21 18:07:14.137
2,0,1,0,1,0,0,0,2020-10-21 18:07:14.154
1,-2,0,0,1,1,0,-3,2020-10-21 18:07:14.171
1,0,-3,-1,-3,-2,-1,-2,2020-10-21 18:07:14.187
1,0,-1,-1,0,-1,-2,-3,2020-10-21 18:07:14.204
3,1,0,0,0,-2,1,0,2020-10-21 18:07:14.221
5,-2,-1,-2,0,-1,0,1,2020-10-21 18:07:14.238
-11,-4,1,2,2,0,1,0,2020-10-21 18:07:14.253
4,-2,-1,0,0,-1,0,0,2020-10-21 18:07:14.270
0,-1,-2,-1,-1,-3,-2,0,2020-10-21 18:07:14.286
-2,0,0,-2,-2,1,3,-2,2020-10-21 18:07:14.303
-1,1,-1,0,-2,-1,-1,-1,2020-10-21 18:07:14.320
5,-1,0,0,0,-2,-2,0,2020-10-21 18:07:14.337
5,0,0,0,-1,0,1,-5,2020-10-21 18:07:14.354
-4,-4,-2,-1,-1,0,1,-1,2020-10-21 18:07:14.370
-11,-3,0,0,-2,-1,-1,1,2020-10-21 18:07:14.387
0,-1,-1,0,-2,-1,-1,1,2020-10-21 18:07:14.404
1,1,1,-1,0,-1,-2,-2,2020-10-21 18:07:14.421
1,0,0,1,0,-2,-1,2,2020-10-21 18:07:14.437
4,0,-1,0,-2,-1,-2,-3,2020-10-21 18:07:14.454
-13,-4,-4,-1,-2,-1,0,1,2020-10-21 18:07:14.470
-4,2,-3,0,-1,-1,-1,-4,2020-10-21 18:07:14.487
4,0,0,0,1,0,1,2,2020-10-21 18:07:14.504
-1,-1,0,1,-1,0,0,1,2020-10-21 18:07:14.521
-2,4,0,-3,-1,0,-2,-1,2020-10-21 18:07:14.538
0,1,0,0,-1,-1,-1,-2,2020-10-21 18:07:14.554
4,-1,-2,-2,-3,0,-3,0,2020-10-21 18:07:14.571
3,-1,0,0,1,0,1,-1,2020-10-21 18:07:14.587
-10,-6,-1,0,-2,-3,-2,1,2020-10-21 18:07:14.605
-3,-1,1,-1,-1,-1,1,0,2020-10-21 18:07:14.622
4,1,-1,-1,-1,1,1,2,2020-10-21 18:07:14.638
2,-1,-1,-2,0,0,-1,2,2020-10-21 18:07:14.654
-1,-1,1,-2,0,0,2,-1,2020-10-21 18:07:14.671
0,-1,-4,-1,0,0,-1,0,2020-10-21 18:07:14.687
-4,2,0,0,-1,0,0,-3,2020-10-21 18:07:14.705
5,-1,1,-2,-1,0,0,1,2020-10-21 18:07:14.721
1,1,-1,-1,0,-1,-1,-2,2020-10-21 18:07:14.738
0,3,-1,0,0,-2,0,2,2020-10-21 18:07:14.755
0,-2,0,-2,-1,-1,1,-3,2020-10-21 18:07:14.771
-2,-1,0,-1,-2,-1,-1,-1,2020-10-21 18:07:14.787
2,-2,-2,3,0,0,-2,0,2020-10-21 18:07:14.804
-8,-5,0,-1,-1,-2,-2,-2,2020-10-21 18:07:14.821
5,0,0,-1,-2,-1,1,1,2020-10-21 18:07:14.837
-3,-3,0,-2,0,0,1,-2,2020-10-21 18:07:14.855
-4,-1,0,0,-1,-1,1,1,2020-10-21 18:07:14.872
-2,-2,0,4,1,-1,0,-3,2020-10-21 18:07:14.888
2,-2,-2,-1,0,-1,-2,0,2020-10-21 18:07:14.905
1,2,1,0,1,0,-1,-1,2020-10-21 18:07:14.922
-4,-3,-1,-1,-2,-2,-1,-1,2020-10-21 18:07:14.937
1,1,0,-3,-4,-1,-2,0,2020-10-21 18:07:14.954
1,-2,-1,0,0,-1,-1,2,2020-10-21 18:07:14.971
5,1,-1,0,-1,-3,0,2,2020-10-21 18:07:14.987
-5,0,-1,0,-2,0,-2,-2,2020-10-21 18:07:15.004
4,-4,-2,-1,-1,-1,-1,-2,2020-10-21 18:07:15.021
-2,2,-2,-3,-1,1,2,-2,2020-10-21 18:07:15.038
-4,-3,-1,0,0,0,-2,-1,2020-10-21 18:07:15.055
7,3,0,1,0,-1,0,0,2020-10-21 18:07:15.071
11,-1,-2,-1,-1,-1,0,0,2020-10-21 18:07:15.087
11,-1,-2,-1,-1,-1,0,2,2020-10-21 18:07:15.105
-1,0,0,-1,-2,1,-1,-1,2020-10-21 18:07:15.121
-2,1,0,1,-1,-1,-1,-2,2020-10-21 18:07:15.138
-15,-1,-1,2,0,-2,-2,0,2020-10-21 18:07:15.155
2,-1,-2,-3,0,-1,1,-1,2020-10-21 18:07:15.172
-3,-2,1,2,0,0,0,1,2020-10-21 18:07:15.188
1,-2,-2,1,0,-1,-1,-1,2020-10-21 18:07:15.205
5,-1,-2,-1,-2,-1,0,-1,2020-10-21 18:07:15.222
-3,-1,-1,-1,1,0,-1,1,2020-10-21 18:07:15.238
6,-1,0,-2,-2,-1,0,-2,2020-10-21 18:07:15.255
-2,-1,-1,-1,0,0,0,0,2020-10-21 18:07:15.272
1,1,-1,-2,-2,-1,-1,-2,2020-10-21 18:07:15.289
-1,4,0,-1,1,-1,-2,2,2020-10-21 18:07:15.305
-3,-2,0,1,-1,-1,-1,-1,2020-10-21 18:07:15.322
0,-2,0,-1,-1,-1,0,-1,2020-10-21 18:07:15.339
-1,-2,0,-1,-1,-1,0,-2,2020-10-21 18:07:15.356
-7,0,0,0,0,-1,-1,-2,2020-10-21 18:07:15.371
-2,-1,-1,0,0,-1,0,0,2020-10-21 18:07:15.389
-10,-3,-2,-1,0,-2,-3,-2,2020-10-21 18:07:15.405
3,-1,0,-1,1,0,0,0,2020-10-21 18:07:15.421
-5,-1,0,-1,0,-1,-1,0,2020-10-21 18:07:15.438
2,5,-1,-1,-2,1,0,-5,2020-10-21 18:07:15.455
-2,-1,-2,-2,-3,-2,0,2,2020-10-21 18:07:15.471
3,0,-2,-3,-2,0,-1,2,2020-10-21 18:07:15.488
2,-1,-1,0,-2,0,-1,-1,2020-10-21 18:07:15.504
3,2,-2,1,0,0,-2,0,2020-10-21 18:07:15.522
0,3,-2,1,0,-1,0,0,2020-10-21 18:07:15.538
-6,-2,-1,1,0,-3,4,1,2020-10-21 18:07:15.555
0,-1,0,0,0,-2,-4,-1,2020-10-21 18:07:15.572
-2,0,-1,-1,-1,-1,-1,-1,2020-10-21 18:07:15.589
6,1,0,-3,-4,0,0,-2,2020-10-21 18:07:15.605
-3,-1,0,-1,-1,-3,-1,-4,2020-10-21 18:07:15.622
3,-1,-2,-2,1,1,-1,0,2020-10-21 18:07:15.639
3,-1,-2,-2,1,1,-1,-2,2020-10-21 18:07:15.655
2,-1,-1,0,-1,0,0,0,2020-10-21 18:07:15.672
-2,-2,0,1,1,0,0,1,2020-10-21 18:07:15.689
-1,-1,-1,2,-1,-1,-1,-2,2020-10-21 18:07:15.705
1,-1,-1,0,2,-1,-2,0,2020-10-21 18:07:15.723
-3,-2,-2,-1,-1,0,-3,2,2020-10-21 18:07:15.739
1,4,0,-1,-1,-3,0,1,2020-10-21 18:07:15.756
-3,-3,-1,-1,-2,-1,-1,0,2020-10-21 18:07:15.773
0,-1,0,-3,-3,0,-1,0,2020-10-21 18:07:15.788
-6,1,0,-2,1,-1,0,0,2020-10-21 18:07:15.805
0,-1,-1,0,-2,-3,1,1,2020-10-21 18:07:15.822
1,0,-2,0,-1,-2,0,-1,2020-10-21 18:07:15.839
3,2,-3,-1,-2,-1,-2,-1,2020-10-21 18:07:15.855
2,-2,-1,0,-1,1,-2,2,2020-10-21 18:07:15.872
7,-1,0,0,0,1,1,-2,2020-10-21 18:07:15.889
0,0,1,1,-1,-1,-1,2,2020-10-21 18:07:15.905
3,-3,0,-2,-1,-1,-2,2,2020-10-21 18:07:15.922
3,-3,-2,-2,-2,-1,-1,-2,2020-10-21 18:07:15.939
9,-3,-2,-1,-3,-2,1,-3,2020-10-21 18:07:15.956
-1,-2,-1,-2,-3,-1,-1,1,2020-10-21 18:07:15.973
-3,-1,0,0,1,1,1,-2,2020-10-21 18:07:15.989
-3,0,0,1,-1,-1,0,-2,2020-10-21 18:07:16.005
1,0,0,-1,0,-1,0,-3,2020-10-21 18:07:16.023
1,0,0,-1,0,-1,0,0,2020-10-21 18:07:16.039
-5,-1,-1,0,0,-1,-1,0,2020-10-21 18:07:16.056
1,3,0,1,0,-1,-3,-2,2020-10-21 18:07:16.073
3,0,-1,-2,1,0,-1,-4,2020-10-21 18:07:16.089
-6,-3,-1,0,-3,-1,-3,2,2020-10-21 18:07:16.106
-1,-1,0,-2,-2,0,-2,2,2020-10-21 18:07:16.123
-4,1,-1,1,-1,-1,-2,0,2020-10-21 18:07:16.140
1,0,-1,-1,-2,0,-1,1,2020-10-21 18:07:16.156
-4,-2,-1,-2,0,2,0,-1,2020-10-21 18:07:16.172
-9,-4,-2,0,-2,-1,0,-2,2020-10-21 18:07:16.189
3,-2,-2,-2,-1,0,-1,0,2020-10-21 18:07:16.205
6,1,-1,0,-1,-1,1,-2,2020-10-21 18:07:16.222
0,-3,0,0,0,0,2,-1,2020-10-21 18:07:16.239
-3,-2,1,0,-2,-2,2,0,2020-10-21 18:07:16.256
-1,-2,-1,-2,-1,-1,1,0,2020-10-21 18:07:16.273
-5,0,-1,-3,-1,0,-1,2,2020-10-21 18:07:16.289
-3,-2,-2,0,0,-2,-2,2,2020-10-21 18:07:16.305
-1,2,0,-1,-1,0,-1,-2,2020-10-21 18:07:16.323
-1,-1,-1,0,-1,-1,0,1,2020-10-21 18:07:16.339
-2,-2,-1,0,-1,-1,0,1,2020-10-21 18:07:16.356
8,-3,0,-1,-3,0,-1,-1,2020-10-21 18:07:16.373
-2,-1,-1,-1,-1,0,0,-1,2020-10-21 18:07:16.390
0,1,0,-2,-1,-1,-1,-1,2020-10-21 18:07:16.406
0,1,0,-2,-1,-1,-1,0,2020-10-21 18:07:16.423
-6,0,0,-3,-1,0,-1,-1,2020-10-21 18:07:16.440
4,-1,-1,1,0,-1,-1,-4,2020-10-21 18:07:16.457
-1,-1,1,1,1,0,0,0,2020-10-21 18:07:16.473
2,1,3,0,-1,-1,0,-1,2020-10-21 18:07:16.490
-2,-2,-1,-1,-1,0,-1,-1,2020-10-21 18:07:16.506
5,-1,-2,-1,-1,-1,0,0,2020-10-21 18:07:16.523
0,-2,-2,-1,-1,-1,0,0,2020-10-21 18:07:16.540
1,-2,0,1,-1,0,-1,-1,2020-10-21 18:07:16.556
-8,-3,0,-2,0,-1,-1,-8,2020-10-21 18:07:16.573
-1,-3,-1,0,-1,-1,1,3,2020-10-21 18:07:16.589
-2,0,0,-5,-2,-1,-1,1,2020-10-21 18:07:16.606
-4,-3,0,-1,1,0,-1,0,2020-10-21 18:07:16.623
3,1,0,-3,-2,-2,0,-2,2020-10-21 18:07:16.640
2,0,-1,-1,-1,-2,0,4,2020-10-21 18:07:16.656
-4,2,0,0,-1,0,-1,2,2020-10-21 18:07:16.673
-13,-5,-2,1,0,-1,-2,-2,2020-10-21 18:07:16.690
12,2,-2,0,0,-1,-2,0,2020-10-21 18:07:16.706
2,0,-1,-1,-2,0,-1,0,2020-10-21 18:07:16.723
-2,-1,0,2,1,1,0,-1,2020-10-21 18:07:16.740
-5,-1,-2,0,-1,0,0,0,2020-10-21 18:07:16.757
8,0,-1,1,0,-1,0,0,2020-10-21 18:07:16.773
-2,-1,0,0,-1,-1,-1,-3,2020-10-21 18:07:16.790
1,5,1,0,-2,-2,-1,-6,2020-10-21 18:07:16.807
3,2,0,2,0,0,0,-1,2020-10-21 18:07:16.824
